-1986
-1993
-2000
-2005
-2010
-2015
-2020
-2022
-2023
-2028
-2024
-2033
-2035
-2037
-2042
-2044
-2048
-2053
-2054
-2059
-2059
-2064
-2067
-2074
-2072
-2078
-2079
-2083
-2102
-2087
-2083
-2093
-2103
-2104
-2108
-2113
-2118
-2121
-2127
-2132
-2134
-2136
-2137
-2139
-2141
-2142
-2148
-2151
-2152
-2155
-2160
-2163
-2166
-2167
-2172
-2174
-2177
-2181
-2186
-2187
-2187
-2192
-2196
-2215
-2193
-2195
-2207
-2212
-2214
-2218
-2222
-2227
-2232
-2236
-2240
-2244
-2248
-2247
-2249
-2253
-2255
-2261
-2264
-2267
-2271
-2278
-2276
-2282
-2286
-2288
-2290
-2295
-2300
-2306
-2307
-2313
-2316
-2319
-2322
-2325
-2344
-2334
-2327
-2341
-2345
-2349
-2354
-2360
-2362
-2369
-2375
-2379
-2384
-2387
-2390
-2390
-2394
-2399
-2401
-2404
-2409
-2413
-2417
-2419
-2422
-2426
-2431
-2434
-2436
-2444
-2444
-2447
-2450
-2456
-2458
-2464
-2464
-2469
-2473
-2475
-2494
-2481
-2476
-2485
-2489
-2495
-2494
-2501
-2506
-2511
-2513
-2518
-2522
-2526
-2529
-2529
-2536
-2540
-2551
-2555
-2560
-2568
-2573
-2578
-2586
-2588
-2593
-2601
-2603
-2607
-2609
-2614
-2616
-2626
-2623
-2629
-2632
-2636
-2638
-2638
-2644
-2657
-2664
-2642
-2654
-2660
-2664
-2667
-2669
-2674
-2680
-2684
-2692
-2696
-2695
-2695
-2692
-2695
-2696
-2699
-2703
-2705
-2707
-2711
-2714
-2712
-2720
-2720
-2723
-2726
-2731
-2734
-2740
-2747
-2750
-2756
-2759
-2759
-2759
-2760
-2774
-2766
-2758
-2768
-2773
-2777
-2780
-2784
-2790
-2795
-2803
-2812
-2817
-2822
-2832
-2833
-2833
-2837
-2838
-2850
-2852
-2856
-2862
-2862
-2861
-2863
-2870
-2876
-2880
-2888
-2893
-2898
-2903
-2908
-2909
-2908
-2912
-2911
-2926
-2921
-2906
-2916
-2919
-2926
-2927
-2929
-2937
-2946
-2954
-2961
-2966
-2973
-2974
-2980
-2984
-2984
-2991
-2995
-2998
-3004
-3008
-3016
-3015
-3024
-3023
-3023
-3031
-3030
-3036
-3037
-3042
-3040
-3038
-3030
-3017
-3006
-3006
-2988
-2953
-2951
-2947
-2935
-2937
-2938
-2939
-2937
-2941
-2943
-2945
-2944
-2947
-2956
-2963
-2966
-2976
-2978
-2978
-2984
-2988
-2992
-2998
-2997
-3004
-3007
-3008
-3015
-3016
-3024
-3022
-3025
-3027
-3028
-3024
-3026
-3039
-3034
-3016
-3027
-3033
-3032
-3034
-3039
-3043
-3047
-3054
-3056
-3059
-3059
-3063
-3061
-3060
-3068
-3069
-3077
-3076
-3083
-3082
-3092
-3095
-3097
-3100
-3104
-3106
-3107
-3112
-3112
-3115
-3117
-3116
-3115
-3120
-3138
-3112
-3115
-3121
-3123
-3126
-3127
-3129
-3132
-3133
-3134
-3135
-3134
-3128
-3134
-3138
-3145
-3146
-3154
-3153
-3159
-3160
-3167
-3168
-3177
-3186
-3188
-3192
-3195
-3195
-3198
-3200
-3200
-3196
-3200
-3202
-3220
-3190
-3196
-3203
-3206
-3208
-3211
-3213
-3216
-3219
-3224
-3222
-3224
-3247
-3248
-3258
-3269
-3275
-3279
-3281
-3285
-3285
-3285
-3291
-3295
-3300
-3298
-3304
-3304
-3309
-3317
-3320
-3318
-3322
-3325
-3336
-3356
-3334
-3353
-3369
-3384
-3400
-3408
-3417
-3429
-3434
-3442
-3452
-3460
-3461
-3462
-3468
-3467
-3466
-3463
-3458
-3437
-3417
-3409
-3401
-3396
-3382
-3372
-3359
-3360
-3348
-3341
-3331
-3317
-3310
-3307
-3300
-3300
-3297
-3299
-3317
-3287
-3292
-3302
-3304
-3306
-3307
-3310
-3322
-3326
-3328
-3332
-3333
-3338
-3337
-3340
-3341
-3345
-3348
-3345
-3349
-3351
-3351
-3353
-3352
-3351
-3357
-3359
-3360
-3357
-3353
-3357
-3355
-3357
-3359
-3360
-3356
-3358
-3360
-3361
-3362
-3358
-3357
-3357
-3371
-3358
-3344
-3354
-3353
-3355
-3356
-3356
-3357
-3362
-3364
-3368
-3370
-3371
-3371
-3371
-3370
-3371
-3376
-3375
-3377
-3378
-3375
-3379
-3377
-3377
-3378
-3378
-3375
-3380
-3375
-3375
-3378
-3378
-3380
-3376
-3377
-3374
-3374
-3376
-3372
-3375
-3370
-3373
-3394
-3368
-3372
-3385
-3395
-3399
-3400
-3413
-3417
-3428
-3429
-3439
-3446
-3453
-3453
-3455
-3460
-3459
-3460
-3458
-3462
-3462
-3468
-3471
-3471
-3469
-3469
-3472
-3467
-3466
-3466
-3465
-3462
-3465
-3465
-3464
-3463
-3467
-3469
-3466
-3464
-3458
-3451
-3462
-3471
-3435
-3443
-3447
-3444
-3443
-3447
-3444
-3451
-3453
-3456
-3457
-3464
-3458
-3455
-3462
-3458
-3456
-3458
-3457
-3455
-3456
-3455
-3458
-3459
-3462
-3464
-3466
-3469
-3469
-3471
-3475
-3473
-3483
-3484
-3486
-3492
-3493
-3499
-3501
-3500
-3501
-3519
-3516
-3494
-3498
-3493
-3492
-3492
-3487
-3485
-3487
-3491
-3490
-3492
-3492
-3487
-3483
-3483
-3479
-3480
-3480
-3473
-3481
-3478
-3480
-3482
-3486
-3482
-3485
-3490
-3485
-3492
-3490
-3492
-3492
-3492
-3494
-3495
-3492
-3498
-3496
-3494
-3495
-3496
-3500
-3512
-3480
-3488
-3491
-3494
-3492
-3493
-3495
-3496
-3497
-3501
-3502
-3502
-3502
-3498
-3502
-3498
-3498
-3501
-3503
-3504
-3506
-3508
-3508
-3508
-3510
-3511
-3511
-3513
-3512
-3513
-3514
-3516
-3517
-3519
-3520
-3517
-3519
-3520
-3522
-3538
-3502
-3513
-3518
-3518
-3515
-3515
-3518
-3531
-3544
-3553
-3560
-3563
-3563
-3564
-3562
-3564
-3567
-3571
-3574
-3574
-3575
-3572
-3567
-3567
-3567
-3560
-3562
-3564
-3564
-3564
-3564
-3562
-3567
-3562
-3561
-3559
-3559
-3563
-3571
-3540
-3552
-3556
-3553
-3554
-3556
-3554
-3554
-3557
-3560
-3560
-3560
-3560
-3560
-3557
-3558
-3559
-3556
-3557
-3558
-3556
-3556
-3555
-3555
-3554
-3556
-3552
-3557
-3556
-3554
-3556
-3557
-3553
-3558
-3555
-3551
-3552
-3553
-3551
-3569
-3551
-3545
-3549
-3550
-3552
-3550
-3551
-3550
-3552
-3552
-3554
-3555
-3552
-3551
-3548
-3548
-3548
-3547
-3547
-3548
-3546
-3546
-3547
-3543
-3545
-3543
-3543
-3540
-3535
-3539
-3533
-3537
-3538
-3532
-3536
-3539
-3538
-3537
-3538
-3539
-3534
-3532
-3531
-3545
-3534
-3513
-3524
-3522
-3518
-3515
-3517
-3516
-3515
-3518
-3520
-3521
-3519
-3515
-3510
-3505
-3500
-3502
-3498
-3497
-3494
-3495
-3494
-3493
-3493
-3501
-3495
-3496
-3497
-3495
-3495
-3492
-3490
-3490
-3490
-3488
-3492
-3492
-3494
-3492
-3490
-3495
-3495
-3513
-3494
-3486
-3499
-3492
-3498
-3496
-3495
-3496
-3498
-3496
-3496
-3497
-3495
-3489
-3489
-3490
-3494
-3495
-3494
-3499
-3497
-3497
-3494
-3494
-3492
-3492
-3486
-3491
-3480
-3478
-3479
-3476
-3469
-3470
-3468
-3468
-3467
-3459
-3458
-3457
-3460
-3473
-3440
-3449
-3450
-3446
-3444
-3442
-3441
-3438
-3438
-3440
-3439
-3436
-3434
-3425
-3429
-3426
-3425
-3425
-3427
-3426
-3429
-3428
-3430
-3429
-3430
-3427
-3430
-3428
-3431
-3427
-3429
-3425
-3426
-3420
-3421
-3422
-3416
-3416
-3416
-3417
-3434
-3407
-3410
-3413
-3417
-3418
-3423
-3423
-3428
-3430
-3430
-3437
-3434
-3434
-3434
-3431
-3432
-3433
-3433
-3435
-3438
-3438
-3441
-3441
-3444
-3445
-3448
-3450
-3449
-3454
-3454
-3457
-3458
-3462
-3465
-3465
-3469
-3471
-3474
-3470
-3473
-3472
-3476
-3490
-3457
-3468
-3472
-3473
-3474
-3475
-3476
-3476
-3480
-3482
-3482
-3483
-3483
-3479
-3477
-3476
-3478
-3478
-3477
-3480
-3483
-3478
-3480
-3481
-3479
-3483
-3480
-3481
-3481
-3484
-3480
-3483
-3486
-3485
-3485
-3488
-3487
-3489
-3484
-3485
-3498
-3490
-3473
-3485
-3486
-3488
-3488
-3489
-3494
-3501
-3508
-3511
-3512
-3517
-3514
-3517
-3515
-3516
-3516
-3520
-3520
-3525
-3522
-3520
-3524
-3525
-3523
-3523
-3525
-3523
-3523
-3523
-3521
-3516
-3514
-3511
-3510
-3510
-3512
-3506
-3509
-3505
-3500
-3520
-3511
-3497
-3504
-3548
-3584
-3593
-3596
-3606
-3611
-3616
-3622
-3624
-3627
-3627
-3627
-3628
-3627
-3629
-3625
-3631
-3626
-3624
-3617
-3619
-3621
-3622
-3629
-3632
-3633
-3641
-3640
-3641
-3646
-3642
-3645
-3645
-3644
-3645
-3648
-3651
-3648
-3647
-3650
-3650
-3664
-3663
-3645
-3656
-3657
-3662
-3663
-3666
-3666
-3665
-3666
-3669
-3667
-3670
-3661
-3657
-3657
-3658
-3658
-3652
-3654
-3657
-3654
-3654
-3657
-3658
-3655
-3662
-3666
-3667
-3673
-3680
-3682
-3690
-3692
-3699
-3705
-3710
-3714
-3718
-3727
-3736
-3738
-3745
-3747
-3749
-3755
-3779
-3758
-3763
-3787
-3787
-3795
-3788
-3789
-3783
-3750
-3711
-3695
-3687
-3670
-3654
-3639
-3629
-3622
-3613
-3611
-3605
-3609
-3615
-3653
-3698
-3706
-3707
-3715
-3720
-3733
-3736
-3737
-3737
-3738
-3739
-3739
-3739
-3739
-3739
-3744
-3743
-3741
-3745
-3738
-3751
-3703
-3680
-3674
-3674
-3676
-3664
-3610
-3597
-3586
-3582
-3579
-3577
-3568
-3564
-3556
-3553
-3551
-3548
-3545
-3540
-3539
-3529
-3527
-3514
-3505
-3496
-3489
-3476
-3470
-3464
-3454
-3445
-3440
-3434
-3430
-3431
-3427
-3430
-3438
-3488
-3505
-3501
-3454
-3461
-3481
-3459
-3467
-3485
-3581
-3585
-3618
-3638
-3654
-3676
-3681
-3718
-3735
-3737
-3737
-3722
-3714
-3711
-3731
-3742
-3738
-3743
-3746
-3740
-3733
-3735
-3733
-3725
-3713
-3714
-3709
-3713
-3719
-3716
-3714
-3718
-3707
-3708
-3701
-3700
-3699
-3702
-3693
-3695
-3706
-3716
-3718
-3692
-3700
-3705
-3710
-3713
-3718
-3726
-3734
-3741
-3741
-3742
-3732
-3724
-3715
-3718
-3724
-3724
-3718
-3715
-3721
-3718
-3714
-3717
-3719
-3731
-3735
-3740
-3753
-3756
-3756
-3761
-3762
-3759
-3757
-3758
-3709
-3709
-3709
-3706
-3699
-3696
-3692
-3699
-3703
-3670
-3663
-3657
-3646
-3638
-3639
-3638
-3642
-3644
-3640
-3639
-3641
-3597
-3605
-3595
-3585
-3584
-3574
-3577
-3567
-3563
-3559
-3555
-3555
-3555
-3553
-3552
-3552
-3555
-3557
-3586
-3632
-3642
-3658
-3664
-3669
-3625
-3647
-3644
-3641
-3872
-3789
-3802
-3805
-3808
-3789
-3702
-3721
-3729
-3734
-3734
-3735
-3730
-3732
-3733
-3728
-3771
-3799
-3810
-3830
-3841
-3853
-3861
-3859
-3864
-3863
-3855
-3851
-3850
-3852
-3854
-3857
-3864
-3868
-3875
-3875
-3887
-3889
-3898
-3903
-3901
-3903
-3906
-3924
-3912
-3913
-3923
-3924
-3924
-3916
-3911
-3907
-3900
-3889
-3816
-3811
-3805
-3796
-3792
-3787
-3782
-3785
-3782
-3780
-3780
-3775
-3776
-3774
-3871
-3873
-3872
-3880
-3882
-3889
-3894
-3891
-3896
-3901
-3901
-3905
-3909
-3911
-3916
-3918
-3918
-3913
-3913
-3913
-3925
-3923
-3906
-3914
-3917
-3920
-3921
-3924
-3926
-3926
-3929
-3934
-3935
-3935
-3934
-3934
-3933
-3933
-3935
-3935
-3938
-3936
-3937
-3938
-3938
-3938
-3937
-3938
-3939
-3938
-3937
-3937
-3938
-3935
-3936
-3939
-3935
-3938
-3938
-3940
-3939
-3941
-3939
-3936
-3936
-3948
-3937
-3924
-3936
-3937
-3941
-3945
-3947
-3948
-3951
-3956
-3959
-3961
-3963
-3962
-3965
-3963
-3963
-3962
-3963
-3963
-3965
-3964
-3967
-3967
-3967
-3968
-3968
-3967
-3972
-3974
-3987
-3999
-4000
-4000
-4000
-4000
-4000
-4000
-4000
-4000
-4000
-4000
-4000
-4000
-4000
-4000
-4000
-4000
-4000
-4000
-4000
-4000
-4000
-4000
-4000
-4000
-4000
-4000
-4000
-4000
-4000
-4000
-4000
-4000
-4000
-4000
-4000
-4000
-4000
-4000
-4000
-4000
-4000
-4000
-4000
-4000
-4000
-4000
-4000
-4000
-4000
-4000
-3998
-3998
-3999
-4000
-3989
-4000
-4000
-4000
-4000
-4000
-4000
-4000
-4000
-4000
-4000
-4000
-4000
-4000
-4000
-4000
-4000
-4000
-4000
-4000
-4000
-4000
-4000
-4000
-4000
-4000
-4000
-4000
-4000
-4000
-4000
-4000
-4000
-4000
-4000
-4000
-4000
-4000
-4000
-4000
-4000
-4000
-4000
-4000
-4000
-4000
-4000
-4000
-4000
-4000
-4000
-4000
-4000
-4000
-4000
-4000
-4000
-4000
-4000
-4000
-4000
-4000
-4000
-4000
-4000
-4000
-4000
-4000
-4000
-4000
-4000
-4000
-4000
-4000
-4000
-4000
-4000
-4000
-4000
-4000
-4000
-4000
-4000
-4000
-4000
-4000
-4000
-4000
-4000
-4000
-4000
-4000
-4000
-4000
-4000
-4000
-4000
-4000
-4000
-4000
-4000
-4000
-4000
-4000
-4000
-4000
-4000
-4000
-4000
-4000
-4000
-4000
-4000
-4000
-4000
-4000
-4000
-4000
-4000
-4000
-4000
-4000
-4000
-4000
-4000
-4000
-4000
-4000
-4000
-4000
-4000
-4000
-4000
-4000
-4000
-4000
-4000
-4000
-4000
-4000
-4000
-4000
-3987
-3968
-3956
-3948
-3944
-3935
-3930
-3928
-3922
-3919
-3910
-3906
-3910
-3906
-3903
-3903
-3901
-3898
-3896
-3896
-3894
-3893
-3890
-3888
-3889
-3881
-3878
-3880
-3874
-3874
-3874
-3871
-3869
-3863
-3864
-3861
-3858
-3856
-3852
-3851
-3847
-3839
-3838
-3841
-3850
-3851
-3831
-3844
-3850
-3852
-3856
-3857
-3862
-3864
-3865
-3866
-3867
-3863
-3862
-3855
-3850
-3849
-3841
-3842
-3837
-3840
-3836
-3838
-3839
-3835
-3836
-3837
-3838
-3836
-3837
-3839
-3840
-3839
-3839
-3840
-3841
-3835
-3836
-3835
-3833
-3834
-3834
-3833
-3831
-3833
-3831
-3849
-3831
-3824
-3828
-3833
-3829
-3835
-3834
-3832
-3838
-3839
-3840
-3838
-3837
-3834
-3831
-3830
-3830
-3830
-3828
-3825
-3820
-3818
-3814
-3813
-3814
-3813
-3817
-3810
-3813
-3817
-3818
-3815
-3819
-3819
-3819
-3818
-3822
-3824
-3825
-3826
-3836
-3919
-3913
-3925
-3936
-3954
-3928
-3945
-3951
-3960
-3965
-3966
-3969
-3970
-3969
-3970
-3971
-3970
-3962
-3958
-3951
-3952
-3947
-3946
-3945
-3945
-3944
-3943
-3941
-3942
-3932
-3938
-3930
-3934
-3928
-3929
-3929
-3925
-3924
-3925
-3924
-3925
-3920
-3920
-3912
-3906
-3913
-3902
-3886
-3894
-3892
-3898
-3895
-3892
-3895
-3890
-3892
-3892
-3891
-3888
-3884
-3879
-3877
-3873
-3874
-3868
-3858
-3836
-3842
-3838
-3836
-3831
-3831
-3831
-3822
-3823
-3821
-3814
-3822
-3815
-3821
-3818
-3820
-3818
-3818
-3813
-3815
-3831
-3818
-3805
-3811
-3812
-3814
-3814
-3815
-3817
-3817
-3821
-3820
-3824
-3822
-3819
-3815
-3817
-3813
-3814
-3812
-3814
-3812
-3816
-3814
-3814
-3815
-3816
-3818
-3819
-3823
-3820
-3819
-3820
-3825
-3823
-3827
-3825
-3831
-3826
-3829
-3831
-3829
-3828
-3830
-3831
-3849
-3830
-3825
-3831
-3836
-3836
-3840
-3843
-3849
-3853
-3860
-3868
-3870
-3874
-3875
-3875
-3878
-3876
-3880
-3879
-3883
-3884
-3887
-3889
-3892
-3894
-3893
-3897
-3900
-3896
-3901
-3900
-3900
-3901
-3902
-3901
-3902
-3903
-3901
-3901
-3906
-3903
-3900
-3899
-3898
-3910
-3903
-3881
-3889
-3890
-3888
-3890
-3887
-3887
-3888
-3887
-3887
-3889
-3887
-3881
-3881
-3874
-3875
-3871
-3870
-3869
-3867
-3867
-3865
-3863
-3858
-3861
-3860
-3857
-3858
-3861
-3860
-3862
-3867
-3868
-3870
-3868
-3867
-3865
-3862
-3865
-3885
-3856
-3859
-3865
-3866
-3863
-3866
-3865
-3864
-3868
-3867
-3869
-3869
-3868
-3865
-3862
-3861
-3862
-3859
-3859
-3860
-3860
-3857
-3856
-3858
-3855
-3853
-3852
-3852
-3847
-3849
-3848
-3848
-3845
-3847
-3845
-3844
-3841
-3838
-3837
-3855
-3839
-3825
-3834
-3833
-3835
-3831
-3834
-3834
-3833
-3836
-3834
-3837
-3835
-3833
-3831
-3829
-3829
-3829
-3830
-3828
-3828
-3829
-3828
-3829
-3829
-3830
-3827
-3829
-3827
-3824
-3827
-3825
-3827
-3824
-3825
-3827
-3825
-3821
-3824
-3823
-3845
-3812
-3815
-3819
-3823
-3823
-3825
-3823
-3826
-3823
-3825
-3830
-3830
-3831
-3827
-3826
-3828
-3828
-3829
-3829
-3831
-3831
-3829
-3829
-3831
-3828
-3829
-3827
-3825
-3828
-3826
-3823
-3824
-3824
-3821
-3821
-3820
-3822
-3820
-3817
-3815
-3814
-3818
-3833
-3799
-3806
-3807
-3810
-3810
-3812
-3812
-3817
-3820
-3819
-3825
-3820
-3823
-3819
-3825
-3830
-3831
-3838
-3841
-3849
-3854
-3858
-3862
-3867
-3870
-3872
-3871
-3873
-3870
-3870
-3868
-3868
-3863
-3865
-3865
-3863
-3865
-3863
-3865
-3866
-3868
-3887
-3868
-3864
-3868
-3868
-3868
-3867
-3864
-3864
-3863
-3860
-3861
-3859
-3856
-3852
-3849
-3848
-3847
-3845
-3845
-3842
-3842
-3841
-3840
-3835
-3835
-3833
-3834
-3831
-3829
-3829
-3828
-3826
-3823
-3822
-3822
-3821
-3822
-3822
-3823
-3821
-3820
-3818
-3824
-3841
-3811
-3814
-3818
-3821
-3817
-3821
-3820
-3822
-3820
-3822
-3825
-3824
-3822
-3820
-3816
-3815
-3817
-3813
-3813
-3814
-3816
-3813
-3814
-3813
-3813
-3813
-3811
-3812
-3810
-3808
-3808
-3808
-3806
-3803
-3805
-3803
-3803
-3800
-3802
-3800
-3799
-3796
-3794
-3813
-3791
-3785
-3792
-3790
-3791
-3789
-3790
-3789
-3792
-3789
-3793
-3789
-3792
-3786
-3784
-3782
-3781
-3781
-3779
-3780
-3778
-3777
-3778
-3776
-3775
-3774
-3775
-3774
-3774
-3770
-3772
-3771
-3769
-3769
-3768
-3768
-3770
-3768
-3765
-3765
-3764
-3772
-3780
-3748
-3759
-3763
-3759
-3761
-3761
-3759
-3763
-3764
-3765
-3764
-3765
-3763
-3758
-3756
-3755
-3755
-3755
-3754
-3754
-3753
-3751
-3750
-3750
-3749
-3748
-3746
-3745
-3744
-3742
-3743
-3740
-3739
-3739
-3738
-3737
-3739
-3737
-3736
-3735
-3734
-3751
-3735
-3724
-3732
-3730
-3735
-3737
-3738
-3740
-3739
-3744
-3746
-3746
-3742
-3740
-3738
-3734
-3733
-3730
-3731
-3728
-3723
-3725
-3719
-3719
-3720
-3718
-3718
-3716
-3717
-3717
-3714
-3714
-3714
-3716
-3714
-3715
-3714
-3716
-3712
-3715
-3714
-3712
-3711
-3709
-3723
-3718
-3698
-3707
-3707
-3707
-3706
-3708
-3706
-3707
-3708
-3708
-3712
-3708
-3708
-3706
-3706
-3703
-3704
-3705
-3704
-3706
-3704
-3705
-3703
-3704
-3702
-3704
-3703
-3701
-3701
-3705
-3701
-3701
-3705
-3700
-3704
-3704
-3703
-3702
-3704
-3703
-3706
-3704
-3702
-3702
-3700
-3718
-3706
-3693
-3700
-3701
-3702
-3702
-3703
-3703
-3702
-3706
-3705
-3709
-3706
-3704
-3702
-3700
-3700
-3699
-3699
-3700
-3698
-3699
-3698
-3698
-3697
-3696
-3695
-3696
-3694
-3693
-3692
-3692
-3691
-3691
-3691
-3689
-3689
-3689
-3687
-3691
-3684
-3683
-3683
-3689
-3699
-3665
-3677
-3677
-3680
-3678
-3679
-3678
-3677
-3676
-3680
-3679
-3679
-3675
-3673
-3669
-3670
-3668
-3667
-3666
-3666
-3664
-3665
-3662
-3662
-3661
-3661
-3661
-3661
-3661
-3661
-3659
-3661
-3661
-3662
-3662
-3664
-3665
-3664
-3666
-3667
-3661
-3653
-3653
-3649
-3667
-3645
-3642
-3647
-3648
-3650
-3649
-3649
-3651
-3650
-3651
-3650
-3650
-3649
-3644
-3642
-3659
-3668
-3669
-3671
-3668
-3667
-3666
-3663
-3661
-3663
-3662
-3662
-3661
-3660
-3659
-3661
-3658
-3661
-3655
-3658
-3659
-3658
-3655
-3657
-3658
-3658
-3654
-3655
-3656
-3659
-3675
-3641
-3647
-3647
-3650
-3646
-3647
-3647
-3649
-3652
-3654
-3661
-3665
-3664
-3665
-3664
-3665
-3671
-3670
-3667
-3669
-3670
-3671
-3674
-3676
-3678
-3681
-3683
-3684
-3689
-3693
-3691
-3693
-3695
-3697
-3699
-3699
-3703
-3705
-3709
-3716
-3717
-3715
-3718
-3727
-3743
-3709
-3718
-3721
-3723
-3726
-3725
-3727
-3729
-3729
-3735
-3732
-3734
-3727
-3727
-3715
-3711
-3682
-3685
-3682
-3676
-3673
-3672
-3668
-3664
-3661
-3660
-3657
-3655
-3655
-3654
-3657
-3698
-3655
-3668
-3669
-3665
-3666
-3679
-3739
-3700
-3701
-3711
-3713
-3722
-3722
-3724
-3720
-3699
-3674
-3692
-3700
-3694
-3685
-3684
-3678
-3725
-3735
-3740
-3738
-3739
-3744
-3741
-3738
-3738
-3742
-3741
-3741
-3740
-3736
-3740
-3734
-3735
-3725
-3721
-3723
-3731
-3743
-3715
-3719
-3728
-3727
-3727
-3731
-3724
-3729
-3695
-3680
-3688
-3680
-3671
-3663
-3657
-3648
-3646
-3641
-3638
-3635
-3630
-3628
-3624
-3621
-3616
-3614
-3615
-3606
-3609
-3602
-3601
-3600
-3601
-3603
-3600
-3599
-3597
-3601
-3616
-3595
-3589
-3597
-3597
-3595
-3593
-3597
-3592
-3590
-3593
-3589
-3589
-3582
-3582
-3579
-3582
-3582
-3579
-3580
-3579
-3581
-3581
-3580
-3582
-3582
-3581
-3582
-3581
-3581
-3584
-3582
-3582
-3586
-3585
-3582
-3583
-3583
-3579
-3585
-3580
-3578
-3580
-3582
-3600
-3568
-3576
-3576
-3582
-3582
-3585
-3585
-3590
-3586
-3591
-3591
-3594
-3591
-3589
-3588
-3587
-3588
-3588
-3587
-3588
-3589
-3587
-3586
-3585
-3587
-3585
-3583
-3583
-3581
-3581
-3581
-3578
-3578
-3577
-3577
-3577
-3574
-3574
-3577
-3574
-3571
-3568
-3571
-3587
-3557
-3558
-3566
-3565
-3565
-3567
-3566
-3567
-3567
-3570
-3569
-3570
-3569
-3567
-3562
-3563
-3561
-3561
-3561
-3559
-3559
-3559
-3558
-3559
-3558
-3558
-3558
-3558
-3558
-3558
-3556
-3558
-3555
-3557
-3555
-3556
-3555
-3555
-3555
-3554
-3559
-3553
-3552
-3555
-3555
-3573
-3542
-3550
-3550
-3552
-3553
-3554
-3554
-3554
-3558
-3557
-3561
-3560
-3559
-3557
-3557
-3558
-3556
-3555
-3557
-3556
-3556
-3554
-3557
-3556
-3554
-3554
-3553
-3553
-3553
-3552
-3553
-3550
-3552
-3552
-3550
-3551
-3551
-3551
-3549
-3551
-3553
-3550
-3549
-3548
-3548
-3567
-3546
-3539
-3544
-3545
-3545
-3546
-3547
-3547
-3548
-3548
-3549
-3548
-3549
-3547
-3545
-3544
-3543
-3543
-3545
-3544
-3542
-3543
-3545
-3543
-3542
-3545
-3545
-3540
-3546
-3542
-3543
-3543
-3543
-3543
-3543
-3545
-3543
-3546
-3544
-3545
-3547
-3547
-3543
-3543
-3544
-3543
-3565
-3533
-3534
-3540
-3544
-3542
-3544
-3544
-3545
-3547
-3547
-3548
-3549
-3547
-3546
-3542
-3540
-3542
-3538
-3539
-3538
-3538
-3537
-3534
-3536
-3534
-3533
-3532
-3533
-3531
-3533
-3531
-3531
-3530
-3532
-3530
-3532
-3531
-3533
-3532
-3535
-3534
-3531
-3532
-3536
-3553
-3521
-3527
-3533
-3535
-3535
-3533
-3536
-3536
-3538
-3536
-3541
-3538
-3537
-3536
-3536
-3534
-3533
-3535
-3534
-3534
-3537
-3537
-3537
-3537
-3537
-3536
-3538
-3537
-3537
-3537
-3539
-3538
-3537
-3538
-3539
-3539
-3536
-3537
-3539
-3541
-3538
-3536
-3537
-3537
-3555
-3532
-3527
-3534
-3536
-3538
-3537
-3540
-3540
-3542
-3544
-3546
-3548
-3546
-3545
-3544
-3544
-3545
-3543
-3546
-3545
-3546
-3548
-3548
-3548
-3550
-3550
-3548
-3549
-3551
-3550
-3550
-3550
-3550
-3550
-3552
-3551
-3551
-3550
-3550
-3555
-3552
-3550
-3550
-3550
-3559
-3559
-3536
-3544
-3549
-3548
-3548
-3550
-3548
-3551
-3550
-3552
-3554
-3552
-3549
-3548
-3548
-3546
-3548
-3544
-3546
-3545
-3544
-3545
-3546
-3545
-3543
-3543
-3544
-3544
-3542
-3543
-3542
-3544
-3543
-3543
-3544
-3544
-3543
-3544
-3546
-3542
-3542
-3540
-3546
-3555
-3525
-3537
-3539
-3539
-3539
-3540
-3540
-3542
-3542
-3545
-3545
-3545
-3545
-3538
-3540
-3539
-3539
-3538
-3538
-3540
-3539
-3540
-3540
-3541
-3539
-3540
-3538
-3544
-3537
-3540
-3539
-3538
-3537
-3537
-3539
-3540
-3534
-3533
-3533
-3537
-3548
-3514
-3525
-3527
-3529
-3528
-3529
-3529
-3530
-3532
-3533
-3534
-3535
-3533
-3531
-3529
-3529
-3529
-3529
-3529
-3528
-3529
-3529
-3529
-3529
-3529
-3526
-3529
-3526
-3525
-3527
-3523
-3524
-3523
-3522
-3522
-3521
-3522
-3522
-3516
-3518
-3515
-3530
-3515
-3502
-3510
-3510
-3511
-3511
-3511
-3510
-3512
-3512
-3513
-3513
-3512
-3510
-3507
-3507
-3505
-3505
-3505
-3504
-3505
-3505
-3505
-3505
-3505
-3504
-3503
-3504
-3504
-3503
-3504
-3502
-3504
-3504
-3503
-3501
-3503
-3505
-3502
-3501
-3501
-3498
-3513
-3506
-3487
-3497
-3499
-3497
-3500
-3500
-3500
-3501
-3503
-3504
-3506
-3505
-3505
-3503
-3501
-3502
-3502
-3501
-3502
-3502
-3503
-3502
-3503
-3502
-3504
-3502
-3502
-3504
-3504
-3502
-3503
-3504
-3503
-3502
-3505
-3504
-3506
-3510
-3505
-3505
-3505
-3512
-3524
-3490
-3502
-3504
-3508
-3507
-3506
-3507
-3509
-3511
-3511
-3513
-3511
-3509
-3508
-3507
-3504
-3506
-3506
-3507
-3509
-3507
-3510
-3506
-3509
-3507
-3508
-3506
-3509
-3507
-3506
-3507
-3506
-3506
-3506
-3505
-3506
-3507
-3503
-3502
-3505
-3508
-3512
-3487
-3497
-3500
-3502
-3501
-3501
-3503
-3503
-3505
-3506
-3507
-3507
-3503
-3501
-3498
-3497
-3497
-3495
-3497
-3496
-3495
-3495
-3496
-3495
-3495
-3495
-3495
-3493
-3495
-3495
-3495
-3494
-3494
-3494
-3495
-3496
-3494
-3492
-3493
-3492
-3512
-3478
-3485
-3491
-3490
-3492
-3490
-3491
-3492
-3493
-3493
-3494
-3495
-3495
-3491
-3491
-3489
-3490
-3489
-3488
-3490
-3490
-3489
-3490
-3490
-3490
-3491
-3489
-3489
-3491
-3489
-3490
-3489
-3490
-3491
-3491
-3491
-3491
-3492
-3492
-3491
-3491
-3492
-3501
-3505
-3480
-3492
-3494
-3495
-3497
-3498
-3501
-3501
-3503
-3507
-3508
-3507
-3507
-3506
-3505
-3505
-3506
-3505
-3506
-3507
-3507
-3508
-3508
-3507
-3509
-3509
-3509
-3511
-3508
-3509
-3509
-3510
-3509
-3510
-3509
-3509
-3510
-3510
-3514
-3511
-3511
-3510
-3512
-3529
-3508
-3503
-3511
-3512
-3513
-3514
-3515
-3517
-3517
-3521
-3521
-3523
-3520
-3521
-3517
-3516
-3514
-3516
-3513
-3513
-3514
-3514
-3514
-3514
-3514
-3515
-3516
-3513
-3515
-3515
-3515
-3513
-3513
-3515
-3514
-3514
-3514
-3516
-3514
-3517
-3517
-3513
-3514
-3516
-3534
-3509
-3507
-3515
-3516
-3515
-3516
-3519
-3517
-3521
-3522
-3524
-3525
-3526
-3522
-3521
-3521
-3519
-3520
-3521
-3520
-3520
-3521
-3523
-3521
-3522
-3523
-3523
-3524
-3525
-3524
-3524
-3525
-3526
-3527
-3526
-3526
-3528
-3530
-3529
-3527
-3529
-3528
-3544
-3531
-3517
-3529
-3532
-3533
-3534
-3536
-3538
-3539
-3539
-3545
-3546
-3545
-3542
-3540
-3542
-3541
-3540
-3539
-3544
-3541
-3543
-3544
-3544
-3544
-3544
-3543
-3545
-3543
-3545
-3544
-3544
-3544
-3547
-3545
-3548
-3548
-3547
-3547
-3546
-3552
-3564
-3530
-3541
-3548
-3546
-3548
-3548
-3548
-3549
-3549
-3551
-3552
-3554
-3552
-3548
-3547
-3548
-3545
-3546
-3544
-3546
-3545
-3545
-3544
-3546
-3543
-3544
-3543
-3543
-3543
-3543
-3542
-3544
-3541
-3541
-3542
-3541
-3541
-3542
-3541
-3544
-3540
-3541
-3541
-3552
-3548
-3529
-3537
-3540
-3542
-3540
-3541
-3540
-3542
-3541
-3544
-3544
-3545
-3542
-3538
-3538
-3538
-3538
-3537
-3535
-3538
-3538
-3536
-3537
-3537
-3539
-3538
-3537
-3540
-3537
-3539
-3538
-3538
-3538
-3539
-3539
-3539
-3538
-3540
-3539
-3541
-3543
-3544
-3543
-3541
-3543
-3546
-3561
-3541
-3537
-3544
-3545
-3547
-3548
-3549
-3550
-3552
-3551
-3559
-3557
-3556
-3557
-3553
-3556
-3555
-3557
-3558
-3559
-3560
-3559
-3562
-3561
-3563
-3566
-3565
-3566
-3569
-3568
-3570
-3571
-3574
-3574
-3576
-3578
-3577
-3579
-3577
-3579
-3580
-3580
-3583
-3581
-3579
-3579
-3585
-3604
-3572
-3579
-3581
-3584
-3584
-3585
-3586
-3587
-3586
-3591
-3591
-3592
-3591
-3589
-3590
-3589
-3590
-3589
-3589
-3591
-3589
-3589
-3591
-3590
-3589
-3592
-3592
-3588
-3591
-3590
-3590
-3590
-3588
-3590
-3590
-3589
-3590
-3591
-3592
-3591
-3596
-3592
-3591
-3592
-3592
-3607
-3592
-3580
-3590
-3591
-3592
-3591
-3594
-3592
-3595
-3595
-3596
-3600
-3595
-3595
-3590
-3589
-3588
-3589
-3588
-3588
-3589
-3589
-3587
-3590
-3590
-3589
-3589
-3588
-3589
-3591
-3590
-3590
-3590
-3591
-3591
-3593
-3591
-3594
-3594
-3594
-3592
-3590
-3597
-3612
-3581
-3586
-3592
-3595
-3596
-3597
-3599
-3599
-3602
-3604
-3602
-3605
-3605
-3600
-3601
-3599
-3599
-3602
-3598
-3599
-3600
-3600
-3602
-3600
-3600
-3602
-3599
-3603
-3601
-3601
-3602
-3601
-3603
-3602
-3604
-3601
-3603
-3603
-3604
-3607
-3606
-3608
-3609
-3613
-3621
-3637
-3606
-3615
-3620
-3624
-3625
-3625
-3628
-3628
-3629
-3634
-3631
-3633
-3633
-3629
-3627
-3625
-3625
-3624
-3621
-3617
-3617
-3618
-3612
-3612
-3608
-3609
-4000
-4000
-4000
-4000
-4000
-4000
-4000
-4000
-4000
-4000
-4000
-4000
-4000
-4000
-4000
-4000
-4000
-3562
-3553
-3563
-3529
-3520
-3522
-3516
-3511
-3509
-3505
-3502
-3500
-3498
-3498
-3496
-3492
-3495
-3491
-3491
-3490
-3492
-3491
-3494
-3491
-3494
-3491
-3496
-3500
-3500
-3506
-3511
-3512
-3513
-3518
-3520
-3522
-3527
-3529
-3536
-3543
-3549
-3557
-3566
-3569
-3579
-3581
-3584
-3587
-3597
-3614
-3584
-3597
-3605
-3605
-3616
-3615
-3622
-3625
-3632
-3637
-3640
-3644
-3646
-3648
-3648
-3652
-3657
-3659
-3661
-3664
-3668
-3670
-3672
-3671
-3674
-3676
-3673
-3676
-3675
-3671
-3676
-3676
-3668
-3671
-3668
-3665
-3666
-3664
-3659
-3659
-3656
-3661
-3665
-3635
-3646
-3647
-3646
-3642
-3640
-3639
-3635
-3635
-3634
-3634
-3630
-3626
-3622
-3617
-3616
-3613
-3614
-3612
-3613
-3612
-3610
-3610
-3609
-3607
-3605
-3605
-3602
-3603
-3599
-3598
-3597
-3594
-3594
-3595
-3596
-3594
-3592
-3594
-3597
-3615
-3604
-3591
-3605
-3607
-3610
-3609
-3614
-3615
-3617
-3619
-3621
-3624
-3623
-3621
-3620
-3619
-3619
-3620
-3618
-3619
-3617
-3619
-3619
-3618
-3619
-3617
-3616
-3614
-3614
-3615
-3614
-3611
-3609
-3609
-3605
-3603
-3600
-3590
-3580
-3575
-3574
-3583
-3536
-3539
-3530
-3525
-3519
-3511
-3507
-3498
-3492
-3490
-3493
-3490
-3489
-3482
-3483
-3481
-3483
-3488
-3487
-3495
-3503
-3511
-3519
-3528
-3538
-3548
-3555
-3569
-3576
-3585
-3593
-3604
-3607
-3610
-3615
-3618
-3617
-3622
-3618
-3617
-3620
-3632
-3590
-3595
-3592
-3586
-3581
-3579
-3574
-3575
-3567
-3565
-3563
-3556
-3553
-3548
-3548
-3553
-3553
-3562
-3561
-3561
-3559
-3558
-3556
-3555
-3552
-3548
-3548
-3544
-3543
-3535
-3538
-3533
-3532
-3529
-3533
-3529
-3529
-3527
-3528
-3537
-3539
-3512
-3523
-3527
-3529
-3529
-3523
-3529
-3529
-3529
-3532
-3532
-3529
-3527
-3521
-3522
-3515
-3516
-3513
-3512
-3511
-3511
-3511
-3511
-3511
-3507
-3508
-3508
-3510
-3507
-3506
-3508
-3506
-3507
-3506
-3503
-3501
-3500
-3518
-3497
-3492
-3498
-3502
-3502
-3502
-3505
-3502
-3507
-3509
-3511
-3511
-3509
-3505
-3505
-3502
-3504
-3499
-3503
-3503
-3502
-3505
-3503
-3503
-3503
-3501
-3504
-3500
-3503
-3501
-3500
-3502
-3501
-3503
-3500
-3499
-3503
-3503
-3499
-3497
-3497
-3506
-3513
-3483
-3494
-3495
-3495
-3496
-3497
-3496
-3500
-3499
-3502
-3506
-3506
-3503
-3501
-3501
-3502
-3502
-3505
-3503
-3505
-3506
-3507
-3510
-3509
-3509
-3506
-3511
-3511
-3512
-3511
-3511
-3514
-3513
-3512
-3517
-3514
-3514
-3515
-3518
-3516
-3516
-3515
-3517
-3537
-3512
-3510
-3517
-3519
-3518
-3523
-3522
-3526
-3528
-3528
-3529
-3533
-3533
-3530
-3531
-3529
-3536
-3532
-3535
-3539
-3539
-3540
-3543
-3544
-3544
-3548
-3546
-3550
-3548
-3548
-3551
-3548
-3550
-3548
-3548
-3546
-3546
-3548
-3546
-3542
-3543
-3547
-3560
-3525
-3532
-3539
-3537
-3535
-3539
-3538
-3538
-3538
-3539
-3542
-3542
-3539
-3537
-3531
-3533
-3530
-3532
-3529
-3532
-3532
-3530
-3530
-3531
-3532
-3531
-3531
-3532
-3534
-3534
-3535
-3536
-3536
-3531
-3534
-3534
-3540
-3554
-3524
-3533
-3540
-3542
-3542
-3541
-3541
-3539
-3539
-3546
-3541
-3540
-3539
-3533
-3533
-3531
-3531
-3531
-3532
-3532
-3533
-3533
-3535
-3535
-3536
-3536
-3538
-3537
-3538
-3539
-3539
-3540
-3542
-3541
-3539
-3538
-3539
-3557
-3539
-3528
-3537
-3539
-3539
-3540
-3541
-3541
-3544
-3546
-3548
-3548
-3547
-3547
-3546
-3544
-3549
-3543
-3548
-3548
-3549
-3548
-3549
-3550
-3550
-3552
-3550
-3553
-3551
-3554
-3552
-3553
-3555
-3550
-3558
-3553
-3552
-3555
-3552
-3573
-3549
-3546
-3552
-3554
-3556
-3560
-3555
-3560
-3560
-3564
-3563
-3565
-3567
-3562
-3563
-3561
-3565
-3562
-3564
-3563
-3565
-3565
-3567
-3567
-3566
-3567
-3569
-3570
-3570
-3571
-3571
-3571
-3572
-3573
-3574
-3575
-3575
-3578
-3576
-3575
-3578
-3578
-3597
-3589
-3577
-3592
-3594
-3600
-3603
-3603
-3607
-3610
-3611
-3616
-3618
-3616
-3618
-3616
-3617
-3619
-3616
-3619
-3617
-3617
-3617
-3615
-3616
-3614
-3612
-3610
-3605
-3604
-3596
-3590
-3587
-3581
-3576
-3576
-3573
-3573
-3574
-3570
-3569
-3570
-3573
-3593
-3561
-3567
-3574
-3579
-3580
-3580
-3585
-3584
-3587
-3592
-3592
-3595
-3596
-3593
-3593
-3595
-3594
-3595
-3597
-3598
-3601
-3599
-3602
-3603
-3603
-3602
-3605
-3603
-3604
-3604
-3605
-3605
-3605
-3605
-3605
-3605
-3607
-3609
-3603
-3606
-3604
-3610
-3623
-3590
-3601
-3605
-3605
-3606
-3605
-3608
-3608
-3608
-3609
-3609
-3611
-3608
-3605
-3604
-3600
-3602
-3600
-3601
-3601
-3598
-3600
-3599
-3599
-3599
-3598
-3599
-3598
-3598
-3597
-3597
-3598
-3596
-3597
-3594
-3595
-3597
-3594
-3595
-3596
-3596
-3594
-3592
-3592
-3602
-3608
-3577
-3590
-3591
-3591
-3594
-3591
-3594
-3595
-3595
-3597
-3600
-3600
-3598
-3597
-3597
-3596
-3597
-3595
-3598
-3599
-3598
-3601
-3601
-3602
-3603
-3601
-3603
-3605
-3605
-3605
-3605
-3608
-3608
-3610
-3609
-3608
-3610
-3611
-3612
-3611
-3615
-3613
-3613
-3613
-3614
-3637
-3605
-3609
-3613
-3616
-3615
-3619
-3618
-3619
-3620
-3621
-3624
-3624
-3621
-3621
-3619
-3619
-3618
-3618
-3618
-3619
-3619
-3619
-3619
-3621
-3620
-3621
-3622
-3620
-3624
-3623
-3624
-3627
-3625
-3626
-3628
-3628
-3627
-3630
-3631
-3632
-3632
-3633
-3631
-3640
-3651
-3677
-3666
-3675
-3678
-3680
-3680
-3668
-3667
-3671
-3670
-3673
-3673
-3654
-3659
-3657
-3656
-3657
-3658
-3658
-3657
-3658
-3658
-3657
-3658
-3656
-3656
-3657
-3657
-3655
-3656
-3655
-3655
-3654
-3656
-3655
-3655
-3658
-3653
-3653
-3653
-3656
-3673
-3642
-3647
-3651
-3654
-3655
-3653
-3656
-3655
-3657
-3660
-3659
-3661
-3658
-3657
-3656
-3655
-3655
-3654
-3653
-3654
-3654
-3654
-3652
-3653
-3654
-3652
-3649
-3650
-3650
-3649
-3648
-3648
-3646
-3645
-3648
-3648
-3647
-3649
-3646
-3644
-3647
-3656
-3656
-3632
-3643
-3644
-3646
-3646
-3646
-3648
-3648
-3650
-3649
-3651
-3651
-3648
-3647
-3644
-3645
-3643
-3643
-3645
-3642
-3643
-3643
-3643
-3643
-3642
-3643
-3642
-3644
-3641
-3641
-3640
-3642
-3642
-3641
-3641
-3641
-3643
-3642
-3639
-3640
-3640
-3649
-3651
-3625
-3636
-3637
-3642
-3640
-3640
-3641
-3643
-3643
-3643
-3647
-3646
-3643
-3642
-3641
-3641
-3642
-3640
-3642
-3642
-3640
-3644
-3642
-3642
-3643
-3641
-3643
-3641
-3642
-3643
-3642
-3641
-3642
-3643
-3643
-3647
-3642
-3642
-3642
-3644
-3662
-3634
-3635
-3640
-3642
-3645
-3643
-3644
-3645
-3649
-3649
-3649
-3653
-3650
-3649
-3645
-3646
-3644
-3646
-3644
-3646
-3647
-3647
-3645
-3647
-3648
-3648
-3646
-3648
-3647
-3648
-3646
-3647
-3647
-3648
-3646
-3645
-3642
-3645
-3658
-3644
-3630
-3641
-3643
-3642
-3642
-3643
-3645
-3646
-3645
-3647
-3650
-3647
-3645
-3641
-3640
-3641
-3637
-3641
-3639
-3640
-3640
-3639
-3639
-3640
-3639
-3641
-3637
-3640
-3640
-3638
-3639
-3641
-3644
-3638
-3639
-3639
-3645
-3656
-3625
-3635
-3638
-3642
-3640
-3641
-3642
-3642
-3646
-3644
-3648
-3647
-3643
-3643
-3642
-3642
-3642
-3639
-3643
-3641
-3643
-3642
-3642
-3643
-3643
-3642
-3642
-3642
-3642
-3642
-3642
-3643
-3642
-3642
-3640
-3640
-3647
-3655
-3624
-3636
-3638
-3640
-3641
-3638
-3639
-3641
-3641
-3643
-3642
-3643
-3639
-3639
-3637
-3636
-3634
-3636
-3633
-3633
-3635
-3633
-3633
-3633
-3633
-3630
-3631
-3632
-3631
-3632
-3631
-3630
-3629
-3631
-3631
-3631
-3634
-3630
-3631
-3631
-3635
-3653
-3620
-3628
-3634
-3633
-3637
-3638
-3640
-3641
-3642
-3645
-3647
-3649
-3646
-3648
-3647
-3646
-3647
-3647
-3647
-3651
-3649
-3651
-3651
-3652
-3653
-3652
-3653
-3651
-3654
-3653
-3653
-3653
-3654
-3653
-3656
-3654
-3655
-3656
-3657
-3656
-3659
-3656
-3655
-3654
-3673
-3658
-3645
-3655
-3656
-3660
-3656
-3658
-3661
-3659
-3661
-3664
-3662
-3661
-3661
-3659
-3657
-3659
-3656
-3658
-3657
-3657
-3657
-3658
-3657
-3655
-3658
-3654
-3657
-3654
-3656
-3653
-3655
-3655
-3654
-3652
-3656
-3653
-3649
-3650
-3649
-3668
-3642
-3638
-3645
-3644
-3647
-3647
-3646
-3646
-3646
-3648
-3650
-3648
-3648
-3645
-3642
-3640
-3641
-3640
-3640
-3639
-3638
-3639
-3637
-3639
-3637
-3637
-3637
-3637
-3635
-3637
-3636
-3639
-3634
-3640
-3637
-3635
-3632
-3637
-3651
-3631
-3624
-3631
-3635
-3634
-3634
-3635
-3635
-3640
-3639
-3639
-3642
-3640
-3639
-3635
-3637
-3633
-3637
-3635
-3637
-3636
-3636
-3637
-3638
-3636
-3638
-3636
-3638
-3637
-3638
-3637
-3639
-3637
-3638
-3639
-3639
-3641
-3641
-3640
-3640
-3640
-3651
-3652
-3630
-3641
-3642
-3644
-3644
-3647
-3648
-3650
-3651
-3653
-3654
-3654
-3655
-3653
-3651
-3651
-3653
-3652
-3655
-3654
-3654
-3657
-3656
-3657
-3656
-3660
-3656
-3658
-3658
-3659
-3657
-3659
-3656
-3657
-3657
-3655
-3656
-3657
-3655
-3659
-3655
-3655
-3654
-3656
-3675
-3646
-3646
-3653
-3654
-3655
-3656
-3656
-3657
-3658
-3659
-3659
-3661
-3659
-3655
-3654
-3655
-3653
-3649
-3647
-3650
-3645
-3648
-3647
-3646
-3646
-3645
-3642
-3642
-3641
-3637
-3636
-3632
-3629
-3626
-3624
-3619
-3613
-3611
-3605
-3605
-3601
-3599
-3596
-3597
-3592
-3594
-3593
-3608
-3610
-3588
-3595
-3603
-3599
-3596
-3597
-3596
-3598
-3601
-3603
-3602
-3602
-3603
-3601
-3598
-3599
-3600
-3602
-3603
-3605
-3607
-3614
-3617
-3624
-3625
-3627
-3632
-3636
-3635
-3639
-3640
-3639
-3637
-3642
-3641
-3638
-3639
-3641
-3639
-3636
-3641
-3634
-3635
-3633
-3633
-3651
-3625
-3624
-3630
-3632
-3633
-3633
-3636
-3637
-3639
-3642
-3642
-3643
-3643
-3641
-3639
-3637
-3640
-3639
-3639
-3640
-3641
-3641
-3641
-3640
-3642
-3640
-3642
-3640
-3641
-3641
-3638
-3642
-3642
-3640
-3641
-3641
-3642
-3641
-3642
-3644
-3643
-3639
-3642
-3642
-3660
-3637
-3633
-3640
-3640
-3642
-3643
-3643
-3642
-3647
-3645
-3648
-3650
-3649
-3648
-3646
-3648
-3646
-3646
-3647
-3648
-3646
-3650
-3647
-3650
-3653
-3650
-3653
-3650
-3653
-3653
-3653
-3654
-3653
-3654
-3656
-3652
-3657
-3656
-3656
-3656
-3657
-3656
-3655
-3654
-3655
-3678
-3645
-3647
-3656
-3657
-3657
-3658
-3657
-3661
-3660
-3664
-3664
-3665
-3664
-3662
-3662
-3658
-3662
-3659
-3663
-3659
-3662
-3663
-3661
-3663
-3662
-3661
-3663
-3662
-3662
-3661
-3663
-3661
-3661
-3662
-3661
-3662
-3660
-3660
-3663
-3659
-3664
-3662
-3661
-3660
-3661
-3672
-3672
-3648
-3660
-3661
-3662
-3664
-3665
-3667
-3667
-3667
-3672
-3671
-3674
-3664
-3669
-3667
-3665
-3664
-3665
-3665
-3665
-3664
-3665
-3666
-3664
-3665
-3664
-3665
-3665
-3663
-3663
-3665
-3663
-3665
-3665
-3663
-3666
-3666
-3666
-3666
-3663
-3665
-3665
-3684
-3650
-3657
-3662
-3664
-3665
-3667
-3666
-3667
-3668
-3671
-3674
-3672
-3672
-3668
-3665
-3663
-3665
-3663
-3662
-3662
-3663
-3662
-3662
-3662
-3661
-3661
-3662
-3660
-3662
-3661
-3661
-3660
-3658
-3660
-3662
-3661
-3657
-3658
-3658
-3675
-3652
-3646
-3655
-3655
-3656
-3655
-3655
-3657
-3656
-3658
-3659
-3659
-3659
-3655
-3653
-3652
-3651
-3650
-3652
-3652
-3651
-3653
-3652
-3651
-3653
-3651
-3653
-3652
-3651
-3648
-3651
-3651
-3650
-3651
-3648
-3654
-3653
-3649
-3651
-3648
-3659
-3667
-3634
-3648
-3652
-3653
-3652
-3654
-3653
-3658
-3656
-3660
-3661
-3661
-3661
-3659
-3659
-3660
-3659
-3660
-3658
-3659
-3658
-3656
-3657
-3657
-3658
-3660
-3661
-3661
-3662
-3663
-3662
-3663
-3670
-3668
-3670
-3671
-3673
-3675
-3677
-3680
-3680
-3679
-3681
-3685
-3705
-3680
-3680
-3689
-3691
-3695
-3696
-3698
-3699
-3701
-3703
-3707
-3708
-3708
-3706
-3704
-3705
-3705
-3706
-3707
-3708
-3710
-3710
-3713
-3712
-3712
-3712
-3713
-3715
-3712
-3714
-3713
-3713
-3713
-3713
-3714
-3714
-3715
-3714
-3714
-3716
-3716
-3717
-3718
-3716
-3716
-3714
-3718
-3736
-3704
-3709
-3715
-3717
-3717
-3717
-3718
-3720
-3721
-3722
-3724
-3724
-3724
-3722
-3721
-3718
-3718
-3718
-3718
-3719
-3718
-3718
-3718
-3716
-3716
-3716
-3716
-3715
-3714
-3713
-3713
-3713
-3712
-3712
-3709
-3710
-3709
-3708
-3709
-3709
-3710
-3708
-3707
-3706
-3711
-3726
-3693
-3699
-3706
-3705
-3707
-3706
-3707
-3708
-3707
-3709
-3711
-3710
-3708
-3706
-3703
-3703
-3702
-3702
-3702
-3700
-3703
-3703
-3702
-3700
-3701
-3702
-3701
-3701
-3699
-3700
-3700
-3700
-3699
-3699
-3700
-3700
-3700
-3699
-3700
-3702
-3703
-3701
-3699
-3699
-3708
-3715
-3686
-3695
-3698
-3699
-3699
-3699
-3700
-3701
-3702
-3703
-3704
-3704
-3702
-3700
-3699
-3698
-3697
-3696
-3696
-3697
-3696
-3695
-3694
-3694
-3694
-3692
-3692
-3691
-3690
-3688
-3688
-3688
-3688
-3688
-3687
-3688
-3689
-3689
-3689
-3690
-3693
-3694
-3691
-3690
-3690
-3700
-3703
-3676
-3687
-3689
-3691
-3689
-3690
-3689
-3691
-3691
-3692
-3693
-3690
-3689
-3685
-3685
-3685
-3684
-3683
-3683
-3684
-3684
-3684
-3683
-3685
-3685
-3684
-3684
-3684
-3684
-3684
-3683
-3684
-3684
-3685
-3686
-3684
-3684
-3685
-3686
-3686
-3684
-3687
-3685
-3682
-3682
-3682
-3697
-3680
-3669
-3677
-3677
-3677
-3679
-3680
-3678
-3680
-3680
-3682
-3683
-3682
-3680
-3678
-3677
-3678
-3677
-3676
-3677
-3676
-3678
-3678
-3675
-3676
-3676
-3675
-3673
-3674
-3674
-3673
-3671
-3673
-3671
-3670
-3668
-3669
-3669
-3672
-3669
-3669
-3667
-3668
-3674
-3679
-3652
-3661
-3664
-3665
-3666
-3665
-3665
-3666
-3668
-3668
-3668
-3669
-3667
-3663
-3661
-3660
-3660
-3661
-3659
-3660
-3661
-3659
-3662
-3660
-3661
-3659
-3662
-3660
-3660
-3660
-3661
-3660
-3661
-3661
-3660
-3661
-3662
-3662
-3659
-3659
-3661
-3677
-3658
-3651
-3658
-3661
-3660
-3660
-3659
-3661
-3661
-3661
-3662
-3663
-3662
-3661
-3658
-3657
-3657
-3657
-3656
-3656
-3656
-3656
-3657
-3655
-3657
-3656
-3655
-3655
-3655
-3655
-3655
-3653
-3654
-3654
-3654
-3654
-3654
-3655
-3657
-3654
-3653
-3654
-3658
-3675
-3640
-3648
-3655
-3656
-3657
-3656
-3658
-3658
-3661
-3661
-3661
-3663
-3661
-3660
-3659
-3657
-3660
-3658
-3659
-3659
-3661
-3661
-3661
-3661
-3662
-3662
-3662
-3662
-3663
-3663
-3663
-3664
-3664
-3664
-3665
-3665
-3666
-3667
-3669
-3670
-3666
-3668
-3667
-3675
-3680
-3651
-3664
-3667
-3666
-3668
-3669
-3668
-3670
-3672
-3674
-3676
-3674
-3674
-3671
-3670
-3670
-3668
-3669
-3668
-3668
-3670
-3667
-3668
-3668
-3667
-3665
-3666
-3666
-3663
-3662
-3663
-3663
-3661
-3661
-3661
-3661
-3660
-3661
-3661
-3659
-3659
-3658
-3661
-3677
-3642
-3651
-3656
-3657
-3658
-3657
-3657
-3659
-3659
-3661
-3661
-3661
-3660
-3657
-3655
-3653
-3653
-3653
-3652
-3652
-3653
-3653
-3652
-3651
-3651
-3650
-3649
-3649
-3648
-3648
-3648
-3647
-3647
-3647
-3648
-3649
-3647
-3645
-3646
-3649
-3666
-3630
-3640
-3645
-3645
-3647
-3648
-3648
-3649
-3650
-3652
-3653
-3654
-3651
-3648
-3645
-3645
-3645
-3644
-3643
-3643
-3644
-3644
-3643
-3643
-3642
-3643
-3642
-3643
-3642
-3642
-3642
-3642
-3642
-3641
-3641
-3642
-3642
-3641
-3638
-3638
-3643
-3657
-3622
-3633
-3636
-3639
-3638
-3639
-3639
-3641
-3640
-3644
-3644
-3644
-3643
-3642
-3641
-3640
-3640
-3642
-3642
-3642
-3641
-3642
-3642
-3642
-3643
-3642
-3642
-3642
-3642
-3642
-3643
-3642
-3644
-3642
-3643
-3642
-3644
-3644
-3641
-3641
-3640
-3648
-3657
-3624
-3636
-3641
-3642
-3642
-3643
-3644
-3646
-3647
-3650
-3652
-3652
-3652
-3649
-3648
-3649
-3648
-3649
-3650
-3649
-3651
-3652
-3652
-3653
-3653
-3654
-3654
-3656
-3654
-3655
-3657
-3655
-3656
-3656
-3656
-3655
-3657
-3656
-3660
-3657
-3656
-3655
-3656
-3671
-3659
-3643
-3654
-3655
-3656
-3655
-3657
-3656
-3658
-3658
-3660
-3660
-3657
-3656
-3651
-3651
-3650
-3649
-3648
-3650
-3648
-3649
-3648
-3649
-3646
-3648
-3646
-3646
-3645
-3645
-3644
-3645
-3644
-3644
-3644
-3646
-3643
-3645
-3647
-3643
-3642
-3642
-3648
-3659
-3625
-3636
-3641
-3642
-3642
-3642
-3643
-3645
-3647
-3647
-3650
-3650
-3648
-3646
-3643
-3644
-3644
-3645
-3643
-3645
-3645
-3646
-3646
-3644
-3645
-3645
-3645
-3646
-3644
-3644
-3647
-3644
-3646
-3645
-3645
-3645
-3643
-3646
-3647
-3643
-3643
-3642
-3645
-3663
-3631
-3636
-3641
-3642
-3642
-3643
-3644
-3644
-3645
-3647
-3649
-3649
-3648
-3646
-3643
-3643
-3642
-3642
-3642
-3642
-3641
-3642
-3642
-3642
-3641
-3641
-3642
-3640
-3641
-3640
-3640
-3641
-3640
-3640
-3641
-3640
-3641
-3639
-3643
-3642
-3640
-3640
-3640
-3656
-3643
-3628
-3639
-3642
-3642
-3641
-3642
-3644
-3646
-3645
-3648
-3649
-3650
-3646
-3646
-3643
-3645
-3643
-3643
-3644
-3644
-3645
-3643
-3645
-3644
-3644
-3644
-3645
-3644
-3644
-3644
-3645
-3645
-3646
-3646
-3646
-3646
-3647
-3649
-3649
-3646
-3647
-3647
-3661
-3651
-3634
-3645
-3647
-3646
-3647
-3646
-3648
-3649
-3648
-3650
-3652
-3650
-3648
-3645
-3645
-3644
-3644
-3644
-3646
-3645
-3647
-3645
-3647
-3647
-3647
-3646
-3646
-3647
-3648
-3647
-3648
-3649
-3649
-3650
-3651
-3653
-3651
-3650
-3650
-3653
-3672
-3636
-3646
-3649
-3653
-3653
-3654
-3653
-3656
-3656
-3659
-3660
-3660
-3659
-3656
-3654
-3653
-3652
-3653
-3651
-3653
-3651
-3654
-3652
-3653
-3652
-3653
-3651
-3652
-3651
-3652
-3652
-3651
-3652
-3652
-3653
-3653
-3654
-3652
-3653
-3650
-3654
-3672
-3639
-3644
-3650
-3651
-3652
-3652
-3653
-3654
-3656
-3658
-3658
-3660
-3658
-3658
-3655
-3655
-3655
-3655
-3656
-3655
-3657
-3657
-3659
-3659
-3658
-3659
-3659
-3659
-3659
-3658
-3659
-3660
-3659
-3660
-3659
-3661
-3661
-3662
-3660
-3659
-3660
-3661
-3679
-3646
-3650
-3656
-3657
-3656
-3658
-3659
-3658
-3660
-3661
-3663
-3664
-3663
-3661
-3661
-3661
-3661
-3660
-3662
-3661
-3663
-3663
-3663
-3664
-3665
-3665
-3664
-3665
-3667
-3666
-3666
-3664
-3667
-3665
-3664
-3664
-3665
-3667
-3667
-3663
-3664
-3663
-3680
-3664
-3654
-3661
-3663
-3663
-3664
-3664
-3665
-3666
-3668
-3669
-3671
-3671
-3669
-3668
-3666
-3667
-3667
-3666
-3666
-3668
-3667
-3666
-3667
-3667
-3668
-3667
-3668
-3669
-3668
-3668
-3669
-3671
-3670
-3670
-3673
-3673
-3670
-3671
-3671
-3687
-3673
-3661
-3671
-3674
-3674
-3675
-3675
-3675
-3676
-3679
-3680
-3681
-3680
-3678
-3677
-3674
-3675
-3674
-3675
-3675
-3676
-3675
-3676
-3678
-3675
-3676
-3675
-3675
-3675
-3675
-3674
-3674
-3674
-3675
-3676
-3676
-3673
-3672
-3671
-3673
-3690
-3661
-3661
-3667
-3669
-3667
-3668
-3667
-3670
-3668
-3672
-3671
-3672
-3671
-3668
-3666
-3665
-3665
-3665
-3665
-3666
-3665
-3665
-3665
-3667
-3666
-3667
-3666
-3668
-3666
-3667
-3666
-3668
-3667
-3667
-3668
-3669
-3671
-3667
-3666
-3667
-3669
-3688
-3656
-3661
-3667
-3666
-3668
-3668
-3671
-3669
-3672
-3673
-3675
-3675
-3675
-3673
-3670
-3672
-3672
-3671
-3672
-3672
-3673
-3674
-3675
-3674
-3674
-3675
-3674
-3674
-3675
-3676
-3675
-3675
-3677
-3677
-3676
-3678
-3678
-3680
-3680
-3679
-3678
-3680
-3687
-3697
-3664
-3677
-3681
-3680
-3681
-3681
-3684
-3685
-3688
-3688
-3690
-3692
-3691
-3688
-3686
-3688
-3688
-3688
-3689
-3690
-3692
-3692
-3693
-3693
-3695
-3696
-3694
-3695
-3697
-3697
-3696
-3696
-3697
-3696
-3698
-3697
-3697
-3697
-3698
-3694
-3695
-3693
-3698
-3711
-3676
-3686
-3690
-3690
-3690
-3690
-3690
-3690
-3693
-3692
-3694
-3695
-3691
-3690
-3688
-3688
-3686
-3686
-3687
-3688
-3688
-3688
-3688
-3688
-3689
-3688
-3689
-3688
-3688
-3689
-3687
-3688
-3687
-3687
-3688
-3688
-3691
-3686
-3687
-3686
-3693
-3703
-3669
-3681
-3684
-3687
-3686
-3685
-3687
-3688
-3687
-3689
-3689
-3690
-3686
-3684
-3681
-3680
-3680
-3680
-3677
-3678
-3677
-3677
-3676
-3675
-3676
-3675
-3673
-3671
-3672
-3671
-3671
-3669
-3670
-3670
-3671
-3670
-3671
-3672
-3676
-3673
-3674
-3675
-3679
-3697
-3661
-3671
-3676
-3679
-3680
-3679
-3682
-3680
-3682
-3682
-3683
-3684
-3683
-3681
-3681
-3680
-3681
-3680
-3680
-3680
-3680
-3681
-3681
-3682
-3683
-3684
-3682
-3685
-3683
-3686
-3685
-3686
-3686
-3685
-3687
-3686
-3687
-3686
-3689
-3688
-3691
-3687
-3686
-3684
-3693
-3698
-3668
-3680
-3681
-3681
-3682
-3682
-3683
-3683
-3685
-3687
-3689
-3689
-3686
-3682
-3683
-3682
-3680
-3680
-3682
-3684
-3684
-3682
-3683
-3683
-3682
-3682
-3680
-3680
-3680
-3679
-3679
-3677
-3678
-3678
-3678
-3675
-3678
-3677
-3678
-3678
-3677
-3674
-3675
-3675
-3692
-3673
-3662
-3671
-3673
-3674
-3675
-3675
-3676
-3677
-3678
-3680
-3681
-3680
-3679
-3678
-3677
-3677
-3680
-3680
-3680
-3684
-3682
-3682
-3682
-3682
-3683
-3683
-3682
-3682
-3682
-3683
-3681
-3683
-3683
-3683
-3683
-3686
-3686
-3682
-3683
-3685
-3701
-3674
-3671
-3679
-3677
-3680
-3679
-3680
-3680
-3681
-3683
-3686
-3687
-3688
-3686
-3682
-3681
-3682
-3680
-3681
-3681
-3681
-3682
-3683
-3682
-3681
-3680
-3680
-3680
-3680
-3678
-3677
-3678
-3677
-3674
-3672
-3670
-3672
-3691
-3661
-3662
-3670
-3671
-3671
-3671
-3670
-3672
-3674
-3674
-3674
-3675
-3672
-3668
-3667
-3663
-3662
-3660
-3654
-3648
-3644
-3641
-3642
-3642
-3646
-3645
-3648
-3648
-3651
-3655
-3659
-3661
-3666
-3674
-3685
-3704
-3695
-3680
-3684
-3682
-3684
-3687
-3688
-3691
-3693
-3702
-3705
-3711
-3714
-3718
-3718
-3719
-3719
-3726
-3726
-3723
-3721
-3716
-3709
-3704
-3701
-3703
-3700
-3698
-3696
-3686
-3680
-3681
-3681
-3688
-3691
-3697
-3704
-3728
-3724
-3714
-3725
-3732
-3732
-3732
-3728
-3728
-3740
-3928
-4000
-4000
-4000
-4000
-4000
-4000
-4000
-4000
-4000
-4000
-4000
-3960
-3824
-3666
-3649
-3640
-3632
-3624
-3615
-3612
-3601
-3592
-3579
-3570
-3561
-3550
-3537
-3531
-3521
-3522
-3523
-3528
-3553
-3529
-3544
-3551
-3552
-3553
-3560
-3567
-3580
-3585
-3596
-3595
-3597
-3610
-3599
-3582
-3587
-3585
-3596
-3608
-3604
-3516
-3513
-3516
-3504
-3505
-3511
-3521
-3537
-3550
-3598
-3690
-3697
-3700
-3702
-3711
-3718
-3718
-3725
-3726
-3724
-3729
-3726
-3745
-3724
-3715
-3726
-3731
-3738
-3741
-3743
-3747
-3755
-3760
-3763
-3763
-3760
-3754
-3751
-3753
-3750
-3749
-3747
-3752
-3745
-3746
-3743
-3746
-3743
-3741
-3896
-3923
-4000
-4000
-4000
-4000
-3994
-3955
-3906
-3763
-3789
-3831
-3841
-3824
-3830
-3831
-3830
-3819
-3806
-3787
-3788
-3780
-3779
-3774
-3774
-3773
-3770
-3772
-3773
-3776
-3774
-3774
-3773
-3778
-3787
-3793
-3789
-3789
-3797
-3888
-3858
-3862
-3854
-3863
-3859
-3842
-3841
-3824
-3831
-3799
-3814
-3827
-3853
-3884
-3916
-3943
-3973
-4000
-4000
-4000
-4000
-3968
-3909
-3859
-3833
-3822
-3817
-3825
-3883
-3836
-3855
-3876
-3896
-3918
-3944
-3965
-3981
-3988
-3913
-3922
-3968
-3963
-3948
-3966
-3962
-3947
-3946
-3940
-3940
-3940
-3938
-4000
-4000
-4000
-4000
-4000
-3998
-4000
-4000
-4000
-4000
-4000
-3998
-3993
-3991
-3989
-3988
-3988
-3986
-3990
-3986
-3981
-3979
-3961
-3967
-3929
-3913
-3916
-3900
-3888
-3885
-3878
-3870
-3864
-3863
-3862
-3859
-3849
-3838
-3792
-3802
-3786
-3801
-3804
-3795
-3791
-3788
-3782
-3770
-3778
-3782
-3772
-3756
-3737
-3725
-3705
-3697
-3692
-3691
-3702
-3721
-3725
-3739
-3662
-3686
-3690
-3784
-3845
-3839
-3846
-3862
-3863
-3869
-3874
-3883
-3895
-3906
-3925
-3936
-3943
-3955
-3964
-3974
-3977
-3974
-3968
-3959
-3946
-3939
-3939
-3933
-3932
-3923
-3922
-3913
-3906
-3896
-3887
-3894
-3893
-3892
-3882
-3873
-3868
-3867
-4000
-4000
-4000
-4000
-4000
-4000
-4000
-4000
-4000
-3853
-3858
-3854
-3849
-3843
-3839
-3840
-3838
-3846
-3842
-3836
-3831
-3822
-3813
-3804
-3795
-3785
-3846
-3901
-3978
-4000
-4000
-4000
-4000
-4000
-4000
-3950
-3775
-3755
-3756
-3757
-3761
-3762
-3763
-3766
-3766
-3765
-3767
-3770
-3771
-3773
-3775
-3791
-3811
-3787
-3808
-3817
-3825
-3830
-3839
-3848
-3859
-3869
-3878
-3886
-3892
-3895
-3888
-3886
-3890
-3890
-3885
-3879
-3869
-3870
-3866
-3669
-3821
-3821
-3815
-3807
-3801
-3793
-3787
-3784
-3776
-3774
-3768
-3765
-3761
-3754
-3750
-3747
-3742
-3740
-3736
-3734
-3734
-3753
-3737
-3728
-3740
-3742
-3746
-3746
-3750
-3751
-3754
-3760
-3770
-3781
-3793
-3801
-3815
-3824
-3835
-3843
-3853
-3859
-3865
-3868
-3981
-3952
-3962
-3969
-3981
-3993
-3998
-4000
-4000
-4000
-4000
-4000
-4000
-4000
-4000
-3968
-3928
-3951
-3950
-3947
-3944
-3944
-3939
-3944
-3945
-3910
-3917
-3918
-3917
-3917
-3918
-3919
-3922
-3922
-3925
-3928
-3933
-3930
-3931
-3933
-3935
-3934
-3941
-3942
-3942
-3944
-3945
-3946
-3946
-3948
-3947
-3948
-3949
-3948
-3948
-3948
-3948
-3951
-3949
-3952
-3951
-3954
-3955
-3956
-3957
-3956
-3957
-3958
-3969
-3967
-3942
-3952
-3953
-3952
-3950
-3948
-3948
-3944
-3946
-3946
-3948
-3948
-3945
-3943
-3941
-3941
-3940
-3940
-3941
-3942
-3940
-3943
-3944
-3944
-3944
-3946
-3948
-3951
-3951
-3953
-3954
-3954
-3955
-3956
-3958
-3955
-3953
-3953
-3954
-3967
-3944
-3937
-3948
-3945
-3946
-3947
-3945
-3948
-3948
-3948
-3950
-3950
-3947
-3947
-3944
-3945
-3944
-3944
-3943
-3944
-3946
-3947
-3948
-3948
-3952
-3951
-3951
-3953
-3952
-3956
-3956
-3957
-3957
-3961
-3962
-3959
-3960
-3961
-3966
-3981
-3945
-3958
-3962
-3965
-3964
-3965
-3968
-3971
-3972
-3972
-3975
-3976
-3972
-3972
-3968
-3969
-3968
-3968
-3969
-3967
-3968
-3968
-3968
-3970
-3967
-3966
-3970
-3970
-3970
-3971
-3973
-3973
-3975
-3974
-3978
-3980
-3978
-3979
-3980
-3991
-3992
-3967
-3981
-3983
-3985
-3987
-3989
-3990
-3990
-3994
-3995
-3997
-3998
-3996
-3995
-3995
-3993
-3994
-3993
-3994
-3995
-3995
-3995
-3996
-3996
-3997
-3994
-3999
-3996
-3997
-3997
-3997
-3997
-3999
-3997
-4000
-3999
-4000
-4000
-4000
-4000
-4000
-4000
-4000
-3990
-4000
-4000
-4000
-4000
-4000
-4000
-4000
-4000
-4000
-4000
-4000
-4000
-4000
-4000
-4000
-4000
-4000
-4000
-3994
-3994
-3991
-3988
-3988
-3992
-3988
-3987
-3985
-3984
-3988
-3987
-3986
-3986
-3985
-3986
-3985
-3981
-3979
-3982
-3998
-3959
-3969
-3969
-3972
-3971
-3973
-3972
-3969
-3967
-3968
-3967
-3963
-3961
-3954
-3952
-3948
-3946
-3946
-3944
-3945
-3944
-3942
-3941
-3940
-3941
-3940
-3940
-3938
-3939
-3939
-3937
-3939
-3937
-3936
-3937
-3937
-3937
-3939
-3938
-3934
-3934
-3933
-3949
-3933
-3922
-3930
-3929
-3931
-3930
-3929
-3930
-3930
-3932
-3933
-3932
-3933
-3930
-3929
-3928
-3926
-3928
-3927
-3928
-3929
-3928
-3929
-3929
-3930
-3928
-3931
-3930
-3929
-3933
-3929
-3932
-3932
-3933
-3932
-3932
-3934
-3933
-3935
-3935
-3938
-3935
-3934
-3936
-3934
-3957
-3928
-3927
-3933
-3935
-3936
-3936
-3935
-3936
-3936
-3936
-3936
-3936
-3932
-3929
-3927
-3924
-3925
-3921
-3922
-3921
-3920
-3921
-3921
-3919
-3918
-3919
-3918
-3917
-3915
-3919
-3913
-3915
-3913
-3912
-3909
-3910
-3906
-3907
-3906
-3906
-3906
-3904
-3901
-3900
-3898
-3919
-3888
-3887
-3893
-3893
-3892
-3891
-3892
-3892
-3890
-3892
-3893
-3892
-3890
-3887
-3884
-3881
-3880
-3880
-3878
-3877
-3876
-3874
-3874
-3873
-3871
-3869
-3868
-3868
-3866
-3864
-3864
-3862
-3859
-3859
-3857
-3857
-3855
-3857
-3858
-3855
-3855
-3855
-3864
-3869
-3841
-3853
-3857
-3857
-3861
-3861
-3863
-3864
-3867
-3868
-3870
-3872
-3870
-3868
-3867
-3868
-3868
-3868
-3870
-3871
-3872
-3872
-3871
-3872
-3870
-3872
-3869
-3869
-3870
-3870
-3870
-3871
-3870
-3872
-3874
-3872
-3870
-3870
-3878
-3890
-3857
-3868
-3872
-3873
-3874
-3874
-3876
-3877
-3878
-3879
-3881
-3881
-3881
-3876
-3877
-3876
-3876
-3875
-3876
-3877
-3876
-3877
-3875
-3879
-3878
-3879
-3878
-3879
-3879
-3880
-3882
-3882
-3881
-3883
-3885
-3887
-3884
-3884
-3885
-3901
-3893
-3874
-3885
-3887
-3888
-3889
-3888
-3891
-3893
-3894
-3896
-3899
-3897
-3895
-3895
-3894
-3895
-3895
-3896
-3897
-3898
-3899
-3900
-3900
-3901
-3902
-3900
-3902
-3904
-3902
-3904
-3904
-3903
-3905
-3904
-3905
-3905
-3906
-3906
-3906
-3903
-3906
-3909
-3925
-3891
-3900
-3904
-3906
-3906
-3907
-3906
-3908
-3909
-3911
-3911
-3913
-3912
-3910
-3906
-3909
-3906
-3905
-3906
-3906
-3904
-3905
-3905
-3902
-3905
-3903
-3903
-3902
-3901
-3900
-3901
-3899
-3900
-3898
-3899
-3899
-3897
-3897
-3898
-3899
-3896
-3892
-3894
-3899
-3908
-3874
-3887
-3887
-3888
-3889
-3887
-3887
-3889
-3887
-3889
-3890
-3887
-3886
-3881
-3879
-3878
-3876
-3874
-3875
-3875
-3873
-3874
-3873
-3873
-3873
-3872
-3868
-3871
-3869
-3868
-3869
-3868
-3868
-3870
-3867
-3868
-3869
-3862
-3864
-3862
-3872
-3867
-3845
-3857
-3861
-3862
-3864
-3866
-3866
-3867
-3869
-3869
-3873
-3871
-3868
-3866
-3866
-3862
-3863
-3860
-3863
-3862
-3863
-3862
-3861
-3862
-3863
-3862
-3861
-3865
-3865
-3864
-3866
-3867
-3862
-3862
-3863
-3861
-3852
-3849
-3850
-3849
-3867
-3833
-3837
-3842
-3840
-3835
-3829
-3824
-3824
-3823
-3819
-3822
-3818
-3816
-3812
-3811
-3808
-3807
-3809
-3807
-3806
-3803
-3808
-3804
-3804
-3802
-3801
-3797
-3799
-3800
-3797
-3796
-3795
-3797
-3794
-3794
-3795
-3796
-3795
-3797
-3793
-3795
-3796
-3808
-3806
-3783
-3795
-3796
-3797
-3798
-3798
-3798
-3800
-3801
-3805
-3805
-3808
-3806
-3803
-3805
-3806
-3807
-3808
-3809
-3813
-3814
-3818
-3819
-3820
-3820
-3817
-3813
-3811
-3809
-3810
-3812
-3810
-3806
-3807
-3807
-3807
-3805
-3806
-3807
-3802
-3802
-3801
-3800
-3821
-3797
-3796
-3803
-3808
-3808
-3812
-3808
-3809
-3811
-3812
-3813
-3815
-3812
-3810
-3810
-3812
-3808
-3811
-3809
-3810
-3811
-3811
-3810
-3811
-3810
-3807
-3808
-3809
-3806
-3806
-3805
-3806
-3804
-3806
-3806
-3803
-3801
-3801
-3801
-3814
-3785
-3786
-3791
-3791
-3791
-3786
-3787
-3784
-3785
-3783
-3782
-3785
-3779
-3774
-3767
-3766
-3759
-3758
-3756
-3754
-3753
-3751
-3748
-3748
-3745
-3743
-3742
-3739
-3737
-3736
-3734
-3734
-3729
-3727
-3727
-3732
-3749
-3726
-3731
-3737
-3740
-3739
-3739
-3742
-3741
-3743
-3743
-3745
-3742
-3737
-3737
-3732
-3733
-3731
-3731
-3731
-3730
-3732
-3730
-3732
-3731
-3733
-3731
-3734
-3734
-3735
-3737
-3739
-3738
-3737
-3736
-3738
-3734
-3734
-3729
-3739
-3742
-3717
-3727
-3727
-3731
-3727
-3736
-3733
-3738
-3739
-3742
-3745
-3743
-3746
-3742
-3744
-3743
-3745
-3747
-3747
-3749
-3744
-3747
-3743
-3741
-3741
-3739
-3737
-3734
-3736
-3735
-3734
-3736
-3737
-3737
-3737
-3734
-3736
-3737
-3737
-3742
-3743
-3739
-3743
-3741
-3751
-3756
-3730
-3738
-3740
-3738
-3739
-3737
-3732
-3737
-3736
-3735
-3737
-3735
-3734
-3731
-3727
-3730
-3730
-3733
-3734
-3737
-3742
-3741
-3739
-3738
-3737
-3733
-3732
-3727
-3727
-3726
-3724
-3727
-3727
-3729
-3732
-3736
-3737
-3738
-3737
-3736
-3733
-3729
-3726
-3725
-3725
-3727
-3746
-3719
-3722
-3733
-3733
-3738
-3736
-3732
-3728
-3724
-3722
-3726
-3724
-3726
-3722
-3722
-3725
-3720
-3722
-3725
-3722
-3723
-3718
-3717
-3716
-3713
-3712
-3713
-3714
-3716
-3720
-3719
-3721
-3722
-3717
-3714
-3711
-3707
-3708
-3703
-3711
-3707
-3705
-3707
-3708
-3719
-3720
-3699
-3704
-3702
-3703
-3701
-3700
-3702
-3704
-3704
-3708
-3711
-3712
-3709
-3706
-3709
-3703
-3701
-3695
-3700
-3696
-3694
-3695
-3697
-3695
-3698
-3699
-3695
-3699
-3700
-3696
-3693
-3690
-3685
-3687
-3686
-3684
-3685
-3685
-3687
-3688
-3693
-3693
-3687
-3689
-3688
-3703
-3674
-3674
-3678
-3677
-3679
-3677
-3681
-3683
-3683
-3687
-3689
-3689
-3686
-3687
-3680
-3680
-3680
-3677
-3680
-3677
-3674
-3675
-3674
-3676
-3675
-3676
-3676
-3675
-3676
-3677
-3680
-3684
-3685
-3684
-3690
-3689
-3687
-3688
-3690
-3689
-3691
-3691
-3689
-3689
-3692
-3694
-3715
-3685
-3689
-3694
-3695
-3696
-3693
-3695
-3693
-3695
-3694
-3697
-3695
-3695
-3693
-3691
-3693
-3694
-3693
-3697
-3697
-3697
-3696
-3697
-3695
-3693
-3693
-3692
-3692
-3687
-3690
-3690
-3689
-3692
-3692
-3693
-3693
-3697
-3697
-3698
-3698
-3696
-3695
-3692
-3697
-3711
-3681
-3687
-3691
-3692
-3695
-3695
-3698
-3698
-3699
-3702
-3702
-3702
-3699
-3697
-3692
-3691
-3688
-3685
-3683
-3684
-3680
-3683
-3685
-3683
-3686
-3687
-3685
-3687
-3684
-3683
-3680
-3678
-3675
-3675
-3672
-3669
-3671
-3670
-3668
-3671
-3668
-3668
-3668
-3677
-3686
-3661
-3666
-3671
-3670
-3668
-3666
-3667
-3661
-3661
-3661
-3664
-3661
-3661
-3654
-3654
-3654
-3655
-3657
-3655
-3660
-3656
-3659
-3656
-3656
-3652
-3653
-3648
-3645
-3646
-3645
-3643
-3644
-3646
-3646
-3647
-3649
-3649
-3651
-3649
-3646
-3645
-3642
-3645
-3655
-3640
-3632
-3638
-3641
-3642
-3645
-3647
-3648
-3653
-3655
-3656
-3658
-3652
-3655
-3649
-3643
-3642
-3636
-3639
-3638
-3637
-3639
-3640
-3643
-3642
-3645
-3645
-3644
-3643
-3646
-3639
-3642
-3641
-3639
-3635
-3636
-3637
-3638
-3641
-3639
-3640
-3641
-3650
-3661
-3635
-3640
-3643
-3642
-3641
-3641
-3637
-3638
-3639
-3642
-3642
-3645
-3643
-3642
-3644
-3645
-3645
-3643
-3644
-3645
-3646
-3642
-3641
-3642
-3638
-3638
-3637
-3638
-3637
-3638
-3639
-3638
-3641
-3643
-3637
-3640
-3641
-3650
-3649
-3626
-3637
-3636
-3638
-3638
-3639
-3638
-3638
-3639
-3642
-3642
-3640
-3636
-3631
-3626
-3626
-3622
-3619
-3615
-3614
-3612
-3618
-3610
-3619
-3613
-3616
-3613
-3618
-3614
-3617
-3618
-3623
-3623
-3619
-3621
-3615
-3632
-3624
-3602
-3610
-3617
-3616
-3609
-3621
-3612
-3617
-3623
-3620
-3616
-3620
-3614
-3617
-3613
-3614
-3613
-3613
-3619
-3615
-3617
-3619
-3619
-3621
-3619
-3624
-3624
-3622
-3622
-3624
-3623
-3621
-3623
-3624
-3642
-3605
-3612
-3616
-3614
-3611
-3614
-3612
-3614
-3611
-3614
-3615
-3617
-3615
-3611
-3611
-3613
-3615
-3613
-3618
-3624
-3627
-3630
-3637
-3640
-3652
-3660
-3665
-3682
-3686
-3691
-3688
-3683
-3684
-3686
-3705
-3673
-3678
-3680
-3682
-3679
-3675
-3664
-3662
-3660
-3656
-3654
-3650
-3644
-3642
-3638
-3635
-3633
-3632
-3631
-3632
-3629
-3632
-3629
-3629
-3631
-3629
-3628
-3628
-3626
-3624
-3623
-3627
-3631
-3607
-3616
-3617
-3617
-3617
-3616
-3617
-3615
-3616
-3620
-3618
-3620
-3615
-3614
-3612
-3611
-3610
-3611
-3610
-3611
-3610
-3612
-3611
-3610
-3610
-3612
-3613
-3612
-3611
-3610
-3611
-3626
-3604
-3603
-3608
-3610
-3609
-3611
-3609
-3611
-3611
-3614
-3613
-3617
-3614
-3614
-3613
-3613
-3614
-3615
-3617
-3617
-3619
-3618
-3619
-3620
-3621
-3623
-3623
-3624
-3625
-3628
-3630
-3630
-3631
-3632
-3633
-3644
-3639
-3626
-3634
-3638
-3638
-3638
-3642
-3642
-3641
-3646
-3648
-3650
-3649
-3649
-3652
-3649
-3665
-3669
-3680
-3690
-3700
-3696
-3702
-3699
-3703
-3700
-3707
-3704
-3705
-3703
-3704
-3705
-3703
-3701
-3695
-3693
-3662
-3669
-3670
-3669
-3671
-3671
-3669
-3669
-3670
-3673
-3687
-3670
-3678
-3694
-3693
-3696
-3699
-3714
-3715
-3723
-3723
-3735
-3736
-3736
-3737
-3738
-3738
-3740
-3740
-3742
-3740
-3741
-3740
-3741
-3739
-3738
-3738
-3734
-3721
-3719
-3705
-3701
-3700
-3699
-3696
-3695
-3681
-3682
-3683
-3679
-3680
-3678
-3678
-3678
-3678
-3676
-3674
-3675
-3692
-3672
-3666
-3672
-3673
-3674
-3673
-3673
-3673
-3673
-3674
-3675
-3677
-3676
-3674
-3673
-3672
-3674
-3688
-3689
-3737
-3726
-3735
-3738
-3741
-3745
-3747
-3768
-3776
-3778
-3784
-3794
-3801
-3802
-3804
-3808
-3808
-3812
-3815
-3820
-3832
-3840
-3846
-3856
-3863
-3864
-3870
-3874
-3882
-3904
-3875
-3891
-3909
-3911
-3922
-3929
-3931
-3941
-3946
-3954
-3952
-3958
-3964
-3968
-3970
-3969
-3974
-3970
-3964
-3953
-3945
-3940
-3940
-3933
-3943
-3940
-3944
-3947
-3946
-3948
-3947
-3954
-3954
-3955
-3957
-3962
-3962
-3968
-3978
-3982
-3988
-3995
-4000
-4000
-4000
-4000
-4000
-4000
-4000
-4000
-4000
-4000
-4000
-4000
-4000
-4000
-4000
-4000
-4000
-4000
-4000
-4000
-4000
-4000
-4000
-4000
-4000
-4000
-4000
-4000
-4000
-4000
-4000
-4000
-4000
-4000
-4000
-4000
-4000
-4000
-4000
-4000
-4000
-4000
-4000
-4000
-4000
-4000
-3976
-3968
-3936
-3881
-3904
-3895
-3889
-3881
-3871
-3943
-3909
-3894
-3853
-3812
-3828
-3820
-3812
-3800
-3808
-3832
-3854
-3811
-3783
-3797
-3799
-3800
-3800
-3794
-3786
-3779
-3763
-3746
-3735
-3721
-3701
-3699
-3667
-3675
-3708
-3707
-3718
-3705
-3676
-2725
-3403
-3544
-3889
-3978
-4000
-4000
-4000
-4000
-4000
-4000
-4000
-4000
-4000
-4000
-4000
-4000
-4000
-4000
-4000
-4000
-4000
-4000
-4000
-4000
-4000
-4000
-4000
-4000
-4000
-4000
-4000
-3999
-4000
-4000
-4000
-4000
-4000
-4000
-4000
-4000
-4000
-4000
-4000
-4000
-4000
-4000
-4000
-4000
-4000
-4000
-4000
-4000
-4000
-4000
-4000
-4000
-4000
-4000
-4000
-4000
-4000
-4000
-4000
-3976
-3829
-3898
-3893
-3888
-3887
-3887
-3896
-3889
-3873
-3881
-3882
-3878
-3874
-3877
-3877
-3876
-3880
-3881
-3879
-3879
-3885
-3887
-3893
-3895
-3901
-3892
-3893
-3893
-3882
-3883
-3883
-3879
-3879
-3868
-3868
-3862
-3859
-3863
-3876
-3883
-3872
-3873
-3873
-3873
-3887
-3849
-3823
-3815
-3809
-3797
-3793
-3779
-3756
-3723
-3679
-3644
-3614
-3598
-3578
-3572
-3561
-3559
-3557
-3554
-3553
-3555
-3564
-3579
-3592
-3610
-3622
-3639
-3654
-3661
-3655
-3642
-3639
-3648
-3662
-3676
-3681
-3680
-3675
-3674
-3689
-3652
-3651
-3653
-3646
-3641
-3639
-3635
-3632
-3629
-3628
-3633
-3670
-3708
-3718
-3723
-3737
-3779
-3785
-3786
-3793
-3799
-3818
-3830
-3831
-3831
-3837
-3836
-3837
-3834
-3832
-3821
-3812
-3809
-3807
-3812
-3812
-3817
-3833
-3848
-3864
-3881
-3910
-3881
-3903
-3903
-3882
-3856
-3772
-3794
-3787
-3776
-3770
-3763
-3753
-3736
-3714
-3694
-3675
-3659
-3638
-3627
-3615
-3598
-3586
-3579
-3574
-3567
-3559
-3557
-3562
-3560
-3555
-3554
-3553
-3554
-3554
-3553
-3556
-3565
-3573
-3593
-3569
-3574
-3580
-3607
-4000
-4000
-3566
-3650
-3674
-3718
-3750
-3768
-3778
-3787
-3784
-3715
-3755
-3761
-3758
-3758
-3750
-3755
-3825
-3819
-3825
-3828
-3831
-3831
-3847
-3863
-3867
-3878
-3886
-3891
-3881
-3868
-3849
-3819
-3781
-3755
-3734
-3721
-3724
-3726
-3726
-3734
-3739
-3746
-3757
-3766
-3778
-3789
-3801
-3804
-3804
-3805
-3798
-3793
-3784
-3772
-3767
-3783
-3799
-3793
-3810
-3810
-3824
-3833
-3840
-3855
-3864
-3866
-3868
-3873
-3863
-3855
-3832
-3766
-3775
-3773
-3787
-3761
-3777
-3789
-3793
-3793
-3792
-3785
-3780
-3771
-3762
-3753
-3749
-3745
-3742
-3744
-3745
-3780
-3820
-3823
-3830
-3828
-3818
-3808
-3774
-3745
-3756
-3755
-3751
-3747
-3747
-3747
-3747
-3742
-3744
-3744
-3740
-3741
-3740
-3740
-3734
-3732
-3731
-3742
-3730
-3716
-3725
-3723
-3727
-3726
-3728
-3729
-3730
-3731
-3737
-3737
-3742
-3741
-3742
-3742
-3741
-3744
-3747
-3748
-3749
-3750
-3753
-3752
-3754
-3752
-3754
-3754
-3755
-3757
-3755
-3759
-3758
-3761
-3760
-3761
-3760
-3760
-3758
-3756
-3755
-3758
-3777
-3748
-3749
-3753
-3755
-3755
-3755
-3755
-3755
-3756
-3761
-3760
-3760
-3762
-3762
-3760
-3764
-3763
-3767
-3769
-3769
-3771
-3770
-3770
-3774
-3772
-3774
-3771
-3773
-3774
-3774
-3774
-3776
-3774
-3774
-3774
-3774
-3773
-3769
-3770
-3768
-3777
-3775
-3752
-3762
-3759
-3761
-3759
-3757
-3757
-3754
-3755
-3755
-3753
-3751
-3746
-3748
-3745
-3747
-3750
-3749
-3751
-3753
-3752
-3754
-3755
-3753
-3754
-3753
-3757
-3755
-3753
-3756
-3755
-3755
-3756
-3753
-3755
-3753
-3753
-3753
-3753
-3754
-3771
-3765
-3751
-3763
-3765
-3768
-3771
-3770
-3773
-3777
-3777
-3775
-3774
-3774
-3773
-3767
-3769
-3766
-3768
-3770
-3766
-3768
-3770
-3769
-3768
-3770
-3771
-3772
-3773
-3772
-3773
-3774
-3775
-3775
-3776
-3774
-3776
-3780
-3778
-3776
-3777
-3776
-3780
-3799
-3766
-3771
-3774
-3776
-3776
-3774
-3778
-3778
-3780
-3780
-3781
-3782
-3782
-3778
-3776
-3779
-3778
-3780
-3780
-3783
-3781
-3783
-3785
-3785
-3785
-3782
-3785
-3783
-3784
-3785
-3782
-3788
-3787
-3789
-3789
-3793
-3792
-3791
-3787
-3793
-3805
-3784
-3784
-3785
-3789
-3791
-3787
-3790
-3789
-3787
-3789
-3789
-3791
-3791
-3784
-3782
-3783
-3779
-3780
-3778
-3779
-3777
-3777
-3777
-3775
-3774
-3773
-3770
-3772
-3769
-3769
-3769
-3769
-3769
-3769
-3770
-3773
-3771
-3771
-3771
-3772
-3791
-3766
-3768
-3773
-3774
-3775
-3774
-3775
-3775
-3777
-3776
-3775
-3779
-3775
-3775
-3772
-3770
-3772
-3768
-3767
-3769
-3768
-3767
-3766
-3768
-3766
-3767
-3767
-3764
-3763
-3761
-3764
-3762
-3760
-3763
-3761
-3764
-3764
-3767
-3767
-3767
-3767
-3768
-3783
-3774
-3760
-3771
-3771
-3774
-3774
-3774
-3774
-3777
-3781
-3781
-3782
-3783
-3780
-3777
-3777
-3778
-3775
-3776
-3777
-3777
-3779
-3782
-3780
-3782
-3784
-3784
-3785
-3784
-3783
-3786
-3782
-3786
-3782
-3783
-3785
-3783
-3784
-3784
-3784
-3784
-3786
-3780
-3779
-3779
-3783
-3794
-3765
-3772
-3774
-3776
-3775
-3778
-3779
-3778
-3784
-3786
-3788
-3790
-3791
-3788
-3789
-3791
-3791
-3792
-3791
-3793
-3794
-3795
-3795
-3795
-3794
-3795
-3795
-3796
-3794
-3795
-3794
-3793
-3795
-3791
-3794
-3793
-3793
-3794
-3795
-3794
-3797
-3794
-3793
-3793
-3793
-3809
-3788
-3780
-3786
-3788
-3790
-3788
-3788
-3790
-3792
-3796
-3796
-3799
-3799
-3798
-3796
-3796
-3795
-3793
-3788
-3789
-3791
-3788
-3787
-3790
-3787
-3788
-3789
-3789
-3788
-3787
-3789
-3789
-3788
-3791
-3789
-3791
-3789
-3793
-3793
-3787
-3789
-3788
-3792
-3806
-3774
-3782
-3785
-3782
-3781
-3783
-3782
-3779
-3783
-3784
-3784
-3785
-3778
-3775
-3777
-3781
-3790
-3795
-3798
-3801
-3805
-3804
-3804
-3808
-3802
-3804
-3802
-3797
-3797
-3794
-3793
-3793
-3788
-3789
-3789
-3788
-3786
-3783
-3785
-3796
-3804
-3771
-3786
-3781
-3787
-3789
-3787
-3786
-3793
-3792
-3787
-3787
-3781
-3784
-3785
-3787
-3783
-3781
-3782
-3780
-3781
-3786
-3787
-3790
-3790
-3788
-3786
-3782
-3783
-3781
-3778
-3781
-3774
-3779
-3776
-3773
-3772
-3772
-3786
-3767
-3764
-3766
-3769
-3772
-3770
-3773
-3772
-3775
-3771
-3774
-3776
-3773
-3770
-3768
-3766
-3769
-3767
-3768
-3769
-3773
-3769
-3771
-3774
-3772
-3772
-3774
-3776
-3773
-3777
-3778
-3783
-3786
-3790
-3792
-3790
-3805
-3790
-3780
-3788
-3791
-3792
-3793
-3791
-3794
-3793
-3798
-3800
-3800
-3798
-3793
-3793
-3792
-3788
-3787
-3786
-3787
-3786
-3783
-3783
-3785
-3782
-3782
-3781
-3780
-3785
-3781
-3781
-3782
-3782
-3778
-3778
-3776
-3786
-3789
-3762
-3773
-3776
-3776
-3775
-3776
-3776
-3778
-3780
-3781
-3782
-3780
-3777
-3776
-3774
-3774
-3771
-3773
-3770
-3771
-3772
-3770
-3772
-3772
-3770
-3771
-3771
-3770
-3772
-3770
-3771
-3770
-3771
-3771
-3770
-3773
-3769
-3768
-3768
-3773
-3786
-3753
-3761
-3768
-3766
-3764
-3767
-3767
-3767
-3768
-3773
-3770
-3772
-3771
-3768
-3765
-3767
-3765
-3766
-3766
-3767
-3765
-3766
-3767
-3764
-3766
-3766
-3766
-3767
-3767
-3767
-3767
-3767
-3767
-3767
-3767
-3766
-3767
-3766
-3769
-3766
-3769
-3770
-3767
-3766
-3766
-3778
-3775
-3754
-3763
-3766
-3767
-3767
-3768
-3768
-3771
-3771
-3773
-3774
-3783
-3793
-3793
-3792
-3794
-3796
-3795
-3798
-3803
-3804
-3805
-3802
-3783
-3772
-3779
-3779
-3779
-3779
-3780
-3780
-3778
-3782
-3782
-3782
-3781
-3783
-3780
-3782
-3780
-3778
-3778
-3774
-3771
-3773
-3790
-3755
-3757
-3763
-3758
-3752
-3751
-3746
-3741
-3738
-3736
-3730
-3734
-3728
-3722
-3717
-3711
-3706
-3710
-3714
-3715
-3720
-3724
-3730
-3737
-3745
-3751
-3759
-3765
-3768
-3769
-3771
-3767
-3765
-3759
-3756
-3754
-3747
-3746
-3746
-3742
-3740
-3739
-3741
-3755
-3720
-3727
-3729
-3728
-3726
-3726
-3724
-3723
-3725
-3725
-3724
-3726
-3725
-3720
-3723
-3718
-3721
-3721
-3720
-3719
-3719
-3719
-3719
-3718
-3717
-3718
-3717
-3716
-3717
-3714
-3712
-3711
-3709
-3706
-3709
-3710
-3709
-3707
-3706
-3706
-3705
-3703
-3700
-3712
-3709
-3688
-3699
-3699
-3700
-3698
-3697
-3693
-3688
-3684
-3684
-3681
-3676
-3671
-3666
-3664
-3661
-3661
-3661
-3661
-3661
-3661
-3661
-3661
-3662
-3661
-3661
-3656
-3660
-3658
-3658
-3658
-3656
-3656
-3657
-3659
-3656
-3657
-3652
-3658
-3657
-3656
-3659
-3662
-3679
-3650
-3657
-3662
-3665
-3669
-3670
-3670
-3675
-3678
-3676
-3678
-3680
-3680
-3680
-3680
-3681
-3681
-3687
-3689
-3693
-3695
-3697
-3699
-3699
-3702
-3707
-3710
-3713
-3716
-3718
-3719
-3722
-3724
-3723
-3723
-3726
-3725
-3728
-3726
-3724
-3726
-3733
-3743
-3713
-3725
-3729
-3732
-3734
-3737
-3737
-3737
-3741
-3745
-3745
-3749
-3746
-3745
-3739
-3742
-3741
-3741
-3741
-3742
-3744
-3746
-3748
-3748
-3747
-3747
-3747
-3746
-3747
-3745
-3748
-3745
-3747
-3747
-3747
-3749
-3747
-3747
-3746
-3747
-3755
-3756
-3732
-3743
-3744
-3748
-3745
-3748
-3750
-3752
-3751
-3755
-3756
-3756
-3756
-3750
-3754
-3753
-3751
-3755
-3755
-3753
-3755
-3757
-3756
-3755
-3757
-3756
-3757
-3756
-3757
-3757
-3757
-3758
-3756
-3758
-3757
-3760
-3760
-3755
-3755
-3758
-3771
-3759
-3744
-3755
-3755
-3756
-3758
-3756
-3757
-3760
-3761
-3765
-3763
-3765
-3762
-3759
-3759
-3760
-3760
-3761
-3762
-3763
-3768
-3767
-3769
-3767
-3765
-3765
-3763
-3761
-3760
-3758
-3757
-3757
-3754
-3754
-3754
-3751
-3750
-3748
-3750
-3768
-3737
-3739
-3745
-3747
-3746
-3746
-3746
-3746
-3747
-3747
-3750
-3746
-3746
-3742
-3739
-3738
-3736
-3737
-3736
-3737
-3736
-3736
-3734
-3735
-3733
-3733
-3733
-3729
-3731
-3730
-3732
-3728
-3724
-3720
-3719
-3730
-3725
-3699
-3710
-3711
-3712
-3708
-3710
-3709
-3710
-3712
-3712
-3714
-3713
-3710
-3708
-3704
-3704
-3702
-3703
-3703
-3703
-3702
-3701
-3700
-3699
-3701
-3698
-3698
-3699
-3699
-3699
-3698
-3699
-3701
-3697
-3699
-3698
-3709
-3708
-3685
-3695
-3699
-3700
-3700
-3700
-3702
-3701
-3706
-3705
-3708
-3707
-3703
-3703
-3701
-3700
-3700
-3700
-3699
-3699
-3701
-3700
-3701
-3699
-3701
-3700
-3701
-3699
-3699
-3700
-3699
-3699
-3699
-3700
-3699
-3699
-3699
-3702
-3703
-3700
-3701
-3700
-3706
-3725
-3690
-3695
-3700
-3702
-3702
-3701
-3700
-3701
-3701
-3703
-3705
-3707
-3707
-3704
-3708
-3709
-3708
-3704
-3699
-3690
-3687
-3686
-3680
-3679
-3676
-3676
-3674
-3677
-3675
-3677
-3680
-3680
-3680
-3681
-3678
-3674
-3676
-3676
-3679
-3680
-3680
-3682
-3680
-3697
-3676
-3666
-3672
-3672
-3671
-3668
-3664
-3668
-3668
-3667
-3667
-3672
-3681
-3680
-3679
-3680
-3680
-3680
-3679
-3679
-3680
-3680
-3681
-3682
-3684
-3685
-3686
-3685
-3687
-3687
-3686
-3687
-3686
-3690
-3687
-3686
-3686
-3684
-3699
-3696
-3675
-3690
-3693
-3699
-3700
-3700
-3704
-3703
-3707
-3709
-3715
-3717
-3713
-3713
-3712
-3713
-3711
-3715
-3715
-3715
-3712
-3714
-3716
-3715
-3713
-3712
-3712
-3708
-3706
-3705
-3707
-3703
-3702
-3700
-3700
-3716
-3690
-3686
-3694
-3687
-3688
-3688
-3681
-3681
-3680
-3680
-3681
-3677
-3680
-3679
-3676
-3676
-3677
-3677
-3680
-3680
-3681
-3680
-3670
-3673
-3667
-3670
-3675
-3675
-3676
-3679
-3676
-3677
-3679
-3680
-3680
-3681
-3684
-3702
-3689
-3678
-3685
-3683
-3687
-3690
-3690
-3694
-3698
-3701
-3700
-3704
-3702
-3703
-3700
-3700
-3699
-3702
-3704
-3707
-3709
-3713
-3714
-3717
-3718
-3720
-3724
-3720
-3722
-3723
-3724
-3723
-3723
-3724
-3719
-3719
-3717
-3720
-3715
-3710
-3710
-3718
-3728
-3698
-3707
-3708
-3714
-3712
-3709
-3714
-3715
-3709
-3718
-3719
-3716
-3715
-3715
-3714
-3715
-3707
-3704
-3700
-3698
-3699
-3697
-3698
-3699
-3700
-3702
-3705
-3705
-3706
-3708
-3707
-3703
-3704
-3699
-3702
-3696
-3699
-3699
-3696
-3693
-3692
-3705
-3702
-3680
-3690
-3696
-3697
-3697
-3697
-3698
-3700
-3699
-3704
-3704
-3702
-3700
-3699
-3696
-3697
-3693
-3695
-3692
-3695
-3697
-3694
-3698
-3699
-3700
-3704
-3704
-3710
-3707
-3713
-3718
-3719
-3725
-3727
-3728
-3732
-3736
-3745
-3754
-3734
-3743
-3753
-3755
-3757
-3759
-3762
-3759
-3758
-3755
-3754
-3749
-3745
-3735
-3728
-3722
-3717
-3713
-3708
-3702
-3702
-3699
-3697
-3694
-3693
-3692
-3693
-3691
-3693
-3699
-3697
-3701
-3700
-3700
-3697
-3694
-3687
-3696
-3701
-3668
-3671
-3672
-3671
-3670
-3667
-3671
-3668
-3666
-3667
-3668
-3669
-3668
-3667
-3670
-3671
-3674
-3678
-3681
-3682
-3684
-3689
-3692
-3693
-3692
-3699
-3701
-3704
-3705
-3711
-3714
-3717
-3721
-3725
-3727
-3724
-3729
-3732
-3747
-3741
-3728
-3743
-3743
-3745
-3740
-3737
-3734
-3731
-3724
-3725
-3722
-3718
-3712
-3710
-3709
-3707
-3706
-3709
-3708
-3707
-3704
-3708
-3707
-3707
-3706
-3709
-3708
-3708
-3710
-3707
-3709
-3711
-3708
-3708
-3709
-3712
-3712
-3714
-3712
-3711
-3713
-3718
-3737
-3707
-3707
-3710
-3711
-3712
-3711
-3712
-3711
-3712
-3711
-3711
-3716
-3717
-3716
-3714
-3713
-3712
-3711
-3711
-3710
-3710
-3710
-3708
-3711
-3708
-3708
-3709
-3711
-3710
-3709
-3708
-3712
-3709
-3709
-3707
-3707
-3709
-3706
-3705
-3704
-3700
-3700
-3698
-3707
-3707
-3682
-3695
-3693
-3696
-3697
-3697
-3698
-3697
-3698
-3701
-3700
-3699
-3698
-3695
-3691
-3692
-3691
-3691
-3689
-3691
-3694
-3692
-3692
-3694
-3696
-3693
-3694
-3694
-3692
-3691
-3692
-3688
-3688
-3689
-3686
-3688
-3687
-3687
-3690
-3688
-3684
-3681
-3688
-3703
-3667
-3678
-3678
-3680
-3681
-3685
-3685
-3691
-3689
-3692
-3690
-3690
-3688
-3684
-3680
-3678
-3683
-3683
-3682
-3680
-3682
-3679
-3680
-3677
-3673
-3678
-3675
-3676
-3673
-3677
-3675
-3676
-3677
-3676
-3679
-3674
-3680
-3678
-3673
-3676
-3674
-3678
-3696
-3666
-3669
-3676
-3674
-3676
-3675
-3677
-3679
-3678
-3676
-3680
-3679
-3679
-3676
-3673
-3672
-3669
-3668
-3669
-3669
-3668
-3670
-3670
-3671
-3677
-3675
-3677
-3676
-3683
-3682
-3684
-3680
-3682
-3682
-3681
-3683
-3685
-3682
-3680
-3682
-3685
-3701
-3669
-3676
-3680
-3679
-3682
-3678
-3679
-3681
-3680
-3690
-3689
-3686
-3690
-3687
-3688
-3684
-3683
-3682
-3685
-3683
-3681
-3686
-3680
-3686
-3684
-3683
-3689
-3688
-3685
-3689
-3692
-3686
-3693
-3695
-3691
-3692
-3690
-3694
-3709
-3678
-3680
-3689
-3682
-3688
-3680
-3684
-3684
-3686
-3683
-3686
-3685
-3683
-3682
-3677
-3680
-3678
-3671
-3675
-3677
-3674
-3676
-3674
-3676
-3674
-3675
-3674
-3676
-3672
-3671
-3673
-3675
-3675
-3676
-3676
-3675
-3671
-3687
-3685
-3661
-3673
-3675
-3675
-3677
-3679
-3678
-3680
-3680
-3680
-3682
-3682
-3678
-3679
-3678
-3674
-3674
-3678
-3677
-3675
-3670
-3671
-3669
-3667
-3668
-3667
-3668
-3667
-3662
-3664
-3666
-3665
-3665
-3665
-3662
-3659
-3656
-3643
-3608
-3540
-3505
-3495
-3496
-3522
-3503
-3521
-3527
-3529
-3525
-3530
-3531
-3543
-3553
-3559
-3570
-3576
-3581
-3595
-3605
-3617
-3644
-3679
-3700
-3712
-3716
-3712
-3716
-3711
-3711
-3713
-3712
-3712
-3705
-3708
-3706
-3707
-3704
-3704
-3707
-3706
-3704
-3706
-3708
-3706
-3709
-3711
-3705
-3704
-3703
-3712
-3719
-3691
-3700
-3703
-3705
-3707
-3709
-3709
-3709
-3713
-3718
-3715
-3717
-3716
-3711
-3708
-3714
-3712
-3709
-3713
-3715
-3716
-3714
-3710
-3710
-3714
-3709
-3709
-3709
-3714
-3710
-3707
-3707
-3710
-3710
-3706
-3708
-3707
-3706
-3707
-3705
-3705
-3704
-3700
-3698
-3699
-3719
-3688
-3685
-3697
-3693
-3695
-3695
-3699
-3701
-3701
-3706
-3704
-3706
-3707
-3704
-3705
-3701
-3702
-3704
-3704
-3705
-3708
-3704
-3705
-3705
-3706
-3705
-3705
-3705
-3707
-3705
-3703
-3706
-3704
-3704
-3705
-3704
-3708
-3704
-3703
-3704
-3702
-3715
-3717
-3689
-3701
-3704
-3710
-3704
-3707
-3709
-3710
-3711
-3713
-3713
-3715
-3710
-3711
-3706
-3706
-3708
-3705
-3705
-3705
-3707
-3704
-3705
-3706
-3704
-3705
-3706
-3702
-3704
-3706
-3705
-3704
-3707
-3704
-3707
-3706
-3708
-3704
-3701
-3699
-3695
-3695
-3709
-3690
-3684
-3690
-3689
-3693
-3691
-3693
-3691
-3687
-3683
-3681
-3684
-3678
-3672
-3670
-3667
-3666
-3667
-3663
-3665
-3661
-3660
-3661
-3658
-3652
-3641
-3633
-3626
-3623
-3618
-3618
-3613
-3612
-3611
-3610
-3611
-3612
-3611
-3619
-3615
-3612
-3614
-3617
-3627
-3632
-3611
-3621
-3624
-3624
-3628
-3630
-3632
-3635
-3640
-3642
-3646
-3650
-3653
-3658
-3664
-3672
-3673
-3678
-3676
-3677
-3681
-3682
-3681
-3680
-3680
-3682
-3680
-3683
-3680
-3680
-3681
-3680
-3684
-3684
-3682
-3681
-3683
-3681
-3679
-3681
-3680
-3675
-3674
-3675
-3693
-3668
-3663
-3671
-3671
-3672
-3671
-3673
-3673
-3673
-3675
-3674
-3673
-3670
-3662
-3653
-3628
-3615
-3613
-3611
-3613
-3614
-3618
-3620
-3626
-3629
-3635
-3641
-3643
-3647
-3653
-3656
-3660
-3664
-3665
-3670
-3669
-3678
-3679
-3681
-3682
-3682
-3683
-3695
-3703
-3675
-3686
-3694
-3699
-3700
-3704
-3706
-3707
-3711
-3712
-3714
-3715
-3713
-3713
-3711
-3713
-3713
-3714
-3714
-3713
-3714
-3711
-3708
-3709
-3706
-3708
-3708
-3704
-3703
-3702
-3700
-3702
-3699
-3701
-3699
-3699
-3703
-3700
-3699
-3699
-3702
-3718
-3692
-3696
-3701
-3703
-3703
-3704
-3705
-3704
-3704
-3703
-3704
-3705
-3703
-3702
-3697
-3697
-3696
-3695
-3697
-3696
-3697
-3700
-3703
-3705
-3707
-3709
-3708
-3708
-3705
-3708
-3703
-3701
-3701
-3700
-3697
-3698
-3694
-3690
-3690
-3686
-3703
-3692
-3677
-3685
-3688
-3690
-3690
-3691
-3691
-3694
-3689
-3692
-3690
-3687
-3682
-3680
-3677
-3675
-3677
-3674
-3671
-3669
-3674
-3674
-3671
-3672
-3672
-3673
-3674
-3673
-3669
-3674
-3673
-3675
-3677
-3674
-3675
-3673
-3683
-3677
-3656
-3666
-3668
-3668
-3670
-3669
-3669
-3671
-3677
-3680
-3680
-3685
-3680
-3684
-3685
-3683
-3686
-3689
-3687
-3687
-3689
-3686
-3689
-3688
-3690
-3687
-3689
-3689
-3689
-3693
-3685
-3689
-3688
-3699
-3697
-3680
-3687
-3690
-3693
-3692
-3694
-3696
-3695
-3698
-3699
-3701
-3700
-3697
-3698
-3698
-3698
-3699
-3698
-3700
-3699
-3699
-3700
-3701
-3699
-3702
-3697
-3703
-3704
-3705
-3701
-3699
-3718
-3685
-3686
-3691
-3686
-3693
-3691
-3694
-3694
-3697
-3699
-3703
-3705
-3703
-3702
-3702
-3702
-3704
-3704
-3707
-3708
-3708
-3709
-3711
-3712
-3714
-3713
-3716
-3716
-3710
-3713
-3714
-3732
-3710
-3705
-3715
-3713
-3713
-3715
-3713
-3715
-3715
-3716
-3719
-3720
-3721
-3714
-3714
-3714
-3714
-3714
-3711
-3714
-3713
-3714
-3718
-3717
-3717
-3718
-3719
-3718
-3714
-3707
-3701
-3701
-3696
-3692
-3707
-3675
-3678
-3678
-3675
-3676
-3674
-3675
-3674
-3674
-3678
-3679
-3682
-3677
-3679
-3677
-3677
-3680
-3680
-3683
-3682
-3682
-3683
-3685
-3683
-3684
-3683
-3680
-3685
-3680
-3680
-3682
-3680
-3682
-3680
-3681
-3681
-3683
-3682
-3682
-3689
-3686
-3685
-3686
-3691
-3706
-3680
-3687
-3691
-3692
-3692
-3695
-3696
-3697
-3699
-3701
-3700
-3705
-3701
-3700
-3697
-3699
-3695
-3690
-3690
-3688
-3684
-3685
-3684
-3682
-3683
-3685
-3684
-3686
-3687
-3689
-3686
-3688
-3690
-3689
-3691
-3688
-3692
-3690
-3693
-3690
-3691
-3692
-3689
-3689
-3688
-3704
-3682
-3679
-3685
-3685
-3682
-3682
-3685
-3683
-3683
-3679
-3680
-3680
-3677
-3670
-3671
-3672
-3669
-3670
-3671
-3671
-3672
-3674
-3676
-3679
-3677
-3680
-3675
-3679
-3679
-3681
-3681
-3680
-3680
-3682
-3681
-3686
-3688
-3684
-3686
-3682
-3686
-3693
-3700
-3673
-3679
-3682
-3684
-3684
-3681
-3686
-3685
-3685
-3686
-3685
-3684
-3681
-3680
-3676
-3677
-3677
-3674
-3674
-3675
-3673
-3671
-3670
-3672
-3670
-3672
-3672
-3672
-3674
-3677
-3680
-3680
-3680
-3681
-3683
-3687
-3685
-3686
-3685
-3687
-3706
-3675
-3680
-3682
-3691
-3689
-3689
-3689
-3690
-3696
-3695
-3693
-3697
-3693
-3691
-3688
-3687
-3689
-3688
-3688
-3685
-3685
-3685
-3685
-3686
-3682
-3683
-3685
-3684
-3687
-3685
-3687
-3684
-3684
-3682
-3682
-3679
-3680
-3680
-3683
-3706
-3671
-3673
-3677
-3678
-3680
-3680
-3682
-3682
-3683
-3686
-3689
-3691
-3689
-3685
-3682
-3681
-3683
-3680
-3685
-3687
-3686
-3687
-3687
-3685
-3685
-3684
-3686
-3684
-3686
-3686
-3688
-3688
-3691
-3691
-3691
-3697
-3691
-3690
-3692
-3695
-3716
-3687
-3685
-3695
-3698
-3698
-3697
-3697
-3697
-3698
-3699
-3699
-3700
-3698
-3695
-3695
-3693
-3694
-3695
-3696
-3694
-3697
-3698
-3699
-3698
-3697
-3696
-3696
-3697
-3697
-3697
-3697
-3698
-3695
-3697
-3691
-3691
-3690
-3685
-3682
-3681
-3691
-3688
-3665
-3679
-3680
-3684
-3686
-3685
-3690
-3690
-3690
-3695
-3693
-3694
-3689
-3688
-3690
-3691
-3691
-3694
-3695
-3689
-3689
-3688
-3685
-3683
-3680
-3678
-3679
-3677
-3678
-3680
-3681
-3685
-3683
-3681
-3683
-3684
-3701
-3669
-3674
-3680
-3680
-3680
-3685
-3685
-3682
-3684
-3683
-3682
-3683
-3679
-3673
-3673
-3668
-3671
-3671
-3672
-3674
-3675
-3677
-3676
-3678
-3678
-3678
-3678
-3677
-3677
-3679
-3680
-3680
-3674
-3677
-3678
-3695
-3661
-3665
-3666
-3666
-3663
-3662
-3661
-3660
-3660
-3660
-3663
-3663
-3663
-3664
-3663
-3667
-3667
-3669
-3672
-3675
-3674
-3677
-3675
-3679
-3677
-3679
-3680
-3679
-3680
-3680
-3680
-3677
-3675
-3674
-3685
-3680
-3659
-3668
-3673
-3676
-3676
-3677
-3678
-3681
-3682
-3681
-3682
-3680
-3676
-3671
-3671
-3672
-3671
-3671
-3670
-3673
-3672
-3671
-3672
-3668
-3666
-3665
-3665
-3666
-3664
-3668
-3669
-3670
-3671
-3680
-3697
-3687
-3675
-3688
-3691
-3695
-3695
-3697
-3695
-3696
-3697
-3699
-3699
-3699
-3702
-3699
-3700
-3702
-3705
-3708
-3709
-3710
-3709
-3714
-3715
-3716
-3715
-3715
-3716
-3717
-3716
-3718
-3718
-3714
-3714
-3712
-3718
-3722
-3688
-3695
-3700
-3703
-3702
-3704
-3702
-3704
-3705
-3706
-3709
-3706
-3705
-3702
-3700
-3700
-3699
-3701
-3699
-3699
-3699
-3699
-3699
-3699
-3699
-3697
-3698
-3696
-3697
-3697
-3695
-3693
-3692
-3692
-3708
-3685
-3680
-3687
-3688
-3687
-3688
-3688
-3687
-3688
-3689
-3691
-3690
-3689
-3686
-3682
-3683
-3682
-3682
-3680
-3681
-3682
-3681
-3682
-3680
-3680
-3681
-3681
-3680
-3680
-3681
-3681
-3681
-3682
-3680
-3678
-3680
-3684
-3694
-3662
-3675
-3678
-3679
-3678
-3678
-3679
-3679
-3680
-3683
-3682
-3682
-3681
-3679
-3679
-3676
-3679
-3678
-3679
-3679
-3679
-3680
-3680
-3679
-3680
-3679
-3679
-3680
-3680
-3680
-3680
-3680
-3680
-3680
-3683
-3684
-3680
-3680
-3680
-3685
-3703
-3670
-3678
-3681
-3683
-3685
-3685
-3687
-3689
-3689
-3691
-3691
-3694
-3692
-3691
-3689
-3690
-3691
-3691
-3692
-3692
-3694
-3694
-3696
-3696
-3696
-3695
-3697
-3697
-3698
-3699
-3698
-3700
-3700
-3700
-3701
-3701
-3702
-3704
-3706
-3702
-3703
-3702
-3719
-3704
-3693
-3702
-3704
-3707
-3704
-3706
-3708
-3707
-3710
-3712
-3710
-3712
-3709
-3707
-3706
-3706
-3706
-3707
-3707
-3706
-3708
-3707
-3708
-3707
-3707
-3707
-3705
-3707
-3705
-3705
-3706
-3705
-3705
-3705
-3708
-3703
-3702
-3702
-3707
-3722
-3689
-3698
-3701
-3702
-3702
-3704
-3703
-3705
-3705
-3707
-3707
-3707
-3705
-3702
-3701
-3700
-3700
-3699
-3700
-3701
-3700
-3699
-3700
-3699
-3699
-3699
-3699
-3698
-3698
-3697
-3698
-3698
-3696
-3698
-3697
-3696
-3692
-3692
-3694
-3712
-3682
-3684
-3690
-3689
-3691
-3691
-3691
-3692
-3693
-3695
-3696
-3696
-3695
-3694
-3692
-3691
-3691
-3692
-3692
-3691
-3691
-3692
-3692
-3691
-3693
-3691
-3691
-3691
-3690
-3691
-3691
-3691
-3692
-3691
-3692
-3694
-3691
-3689
-3689
-3692
-3710
-3676
-3680
-3686
-3686
-3687
-3687
-3687
-3688
-3689
-3690
-3692
-3691
-3691
-3687
-3688
-3686
-3687
-3686
-3686
-3686
-3688
-3687
-3686
-3687
-3686
-3687
-3685
-3687
-3685
-3685
-3686
-3686
-3686
-3686
-3686
-3687
-3688
-3690
-3685
-3686
-3684
-3696
-3697
-3671
-3682
-3684
-3685
-3686
-3685
-3685
-3687
-3686
-3688
-3690
-3688
-3687
-3685
-3685
-3684
-3684
-3682
-3685
-3684
-3683
-3685
-3684
-3684
-3686
-3684
-3685
-3685
-3684
-3684
-3687
-3685
-3683
-3687
-3688
-3684
-3685
-3683
-3687
-3704
-3669
-3678
-3681
-3683
-3682
-3684
-3683
-3685
-3686
-3687
-3689
-3690
-3688
-3685
-3685
-3684
-3684
-3685
-3685
-3685
-3685
-3687
-3684
-3683
-3684
-3684
-3684
-3682
-3683
-3682
-3682
-3683
-3683
-3685
-3682
-3680
-3682
-3687
-3701
-3667
-3678
-3681
-3683
-3684
-3685
-3683
-3685
-3687
-3688
-3690
-3688
-3689
-3686
-3683
-3684
-3684
-3684
-3684
-3685
-3684
-3685
-3685
-3685
-3685
-3684
-3684
-3685
-3684
-3685
-3684
-3686
-3686
-3686
-3688
-3688
-3685
-3684
-3686
-3694
-3700
-3671
-3681
-3686
-3686
-3687
-3688
-3690
-3690
-3693
-3694
-3696
-3696
-3694
-3693
-3693
-3692
-3693
-3694
-3694
-3694
-3697
-3695
-3696
-3698
-3697
-3698
-3698
-3698
-3698
-3699
-3699
-3699
-3699
-3699
-3700
-3699
-3702
-3701
-3699
-3699
-3699
-3714
-3703
-3688
-3698
-3699
-3700
-3701
-3701
-3702
-3704
-3704
-3707
-3707
-3706
-3705
-3702
-3702
-3702
-3704
-3702
-3703
-3704
-3704
-3704
-3704
-3704
-3703
-3703
-3703
-3703
-3703
-3703
-3701
-3704
-3703
-3701
-3702
-3702
-3703
-3703
-3702
-3699
-3699
-3701
-3718
-3691
-3689
-3697
-3697
-3699
-3698
-3698
-3699
-3699
-3700
-3702
-3701
-3701
-3699
-3698
-3695
-3696
-3697
-3696
-3696
-3696
-3695
-3696
-3695
-3695
-3694
-3694
-3695
-3693
-3693
-3693
-3692
-3692
-3692
-3691
-3691
-3692
-3694
-3690
-3689
-3688
-3695
-3705
-3673
-3683
-3687
-3688
-3689
-3688
-3688
-3689
-3689
-3691
-3691
-3691
-3687
-3686
-3684
-3683
-3682
-3681
-3680
-3681
-3681
-3680
-3680
-3680
-3680
-3680
-3680
-3680
-3679
-3679
-3678
-3679
-3678
-3679
-3679
-3679
-3678
-3680
-3680
-3680
-3677
-3677
-3678
-3696
-3673
-3668
-3675
-3677
-3676
-3677
-3678
-3680
-3679
-3681
-3683
-3682
-3684
-3680
-3680
-3679
-3680
-3679
-3680
-3679
-3680
-3679
-3680
-3679
-3679
-3680
-3679
-3679
-3679
-3679
-3678
-3678
-3678
-3678
-3679
-3678
-3679
-3679
-3679
-3680
-3681
-3680
-3680
-3677
-3680
-3699
-3673
-3671
-3678
-3680
-3680
-3680
-3680
-3680
-3683
-3684
-3685
-3685
-3684
-3684
-3681
-3682
-3681
-3681
-3681
-3682
-3682
-3682
-3682
-3682
-3683
-3683
-3683
-3682
-3682
-3683
-3683
-3683
-3682
-3683
-3684
-3683
-3683
-3684
-3684
-3686
-3682
-3683
-3680
-3683
-3703
-3673
-3676
-3680
-3681
-3684
-3684
-3684
-3684
-3685
-3689
-3689
-3690
-3688
-3684
-3684
-3683
-3683
-3681
-3683
-3684
-3682
-3683
-3684
-3685
-3685
-3684
-3684
-3685
-3684
-3685
-3686
-3685
-3686
-3686
-3687
-3688
-3689
-3687
-3685
-3686
-3686
-3705
-3680
-3676
-3685
-3685
-3687
-3686
-3687
-3689
-3688
-3690
-3691
-3693
-3691
-3689
-3686
-3685
-3685
-3686
-3686
-3685
-3686
-3685
-3686
-3685
-3686
-3686
-3684
-3684
-3683
-3685
-3683
-3685
-3684
-3686
-3684
-3684
-3686
-3680
-3699
-3685
-3673
-3680
-3683
-3684
-3684
-3684
-3687
-3687
-3690
-3691
-3692
-3694
-3689
-3690
-3687
-3688
-3687
-3687
-3689
-3688
-3688
-3688
-3688
-3689
-3687
-3686
-3687
-3685
-3685
-3686
-3685
-3685
-3685
-3687
-3685
-3682
-3683
-3681
-3698
-3685
-3669
-3680
-3680
-3682
-3681
-3682
-3683
-3682
-3685
-3686
-3686
-3687
-3683
-3684
-3682
-3684
-3682
-3683
-3685
-3685
-3685
-3685
-3686
-3685
-3685
-3685
-3685
-3685
-3684
-3685
-3685
-3685
-3686
-3685
-3687
-3688
-3688
-3686
-3687
-3689
-3709
-3677
-3681
-3687
-3688
-3689
-3690
-3691
-3691
-3694
-3695
-3697
-3699
-3697
-3695
-3695
-3694
-3696
-3697
-3697
-3697
-3699
-3698
-3699
-3700
-3699
-3700
-3700
-3700
-3700
-3700
-3700
-3702
-3700
-3701
-3701
-3702
-3702
-3705
-3704
-3702
-3701
-3704
-3723
-3696
-3695
-3700
-3702
-3702
-3702
-3702
-3704
-3704
-3706
-3706
-3707
-3707
-3702
-3702
-3700
-3701
-3699
-3702
-3699
-3700
-3699
-3700
-3699
-3699
-3699
-3698
-3697
-3696
-3696
-3696
-3697
-3695
-3697
-3697
-3693
-3693
-3694
-3702
-3702
-3677
-3687
-3691
-3691
-3691
-3692
-3691
-3692
-3694
-3695
-3696
-3694
-3694
-3689
-3690
-3688
-3688
-3688
-3689
-3688
-3688
-3687
-3689
-3688
-3688
-3688
-3688
-3687
-3688
-3688
-3688
-3688
-3692
-3689
-3687
-3687
-3692
-3708
-3673
-3683
-3687
-3686
-3689
-3688
-3689
-3691
-3691
-3695
-3695
-3695
-3693
-3693
-3690
-3691
-3690
-3690
-3690
-3691
-3692
-3691
-3692
-3691
-3691
-3691
-3691
-3690
-3690
-3690
-3689
-3689
-3690
-3687
-3689
-3691
-3687
-3687
-3685
-3687
-3708
-3676
-3680
-3684
-3684
-3687
-3684
-3686
-3686
-3687
-3689
-3688
-3689
-3687
-3687
-3682
-3683
-3684
-3682
-3682
-3683
-3682
-3682
-3682
-3682
-3680
-3681
-3680
-3681
-3680
-3680
-3680
-3680
-3679
-3679
-3679
-3678
-3679
-3676
-3678
-3679
-3673
-3673
-3671
-3677
-3690
-3655
-3665
-3666
-3667
-3667
-3665
-3666
-3666
-3666
-3667
-3667
-3667
-3665
-3661
-3662
-3661
-3661
-3659
-3659
-3661
-3660
-3659
-3659
-3659
-3658
-3659
-3658
-3659
-3658
-3659
-3660
-3660
-3659
-3661
-3659
-3658
-3659
-3660
-3659
-3659
-3661
-3659
-3658
-3657
-3659
-3680
-3649
-3651
-3658
-3658
-3659
-3660
-3661
-3662
-3663
-3666
-3667
-3668
-3668
-3667
-3665
-3663
-3665
-3665
-3664
-3665
-3666
-3666
-3664
-3665
-3666
-3665
-3664
-3664
-3663
-3664
-3663
-3662
-3663
-3663
-3661
-3662
-3661
-3661
-3661
-3660
-3659
-3659
-3667
-3673
-3643
-3655
-3658
-3659
-3660
-3659
-3660
-3661
-3661
-3663
-3664
-3664
-3661
-3660
-3659
-3659
-3658
-3658
-3660
-3658
-3660
-3660
-3659
-3659
-3660
-3659
-3661
-3660
-3660
-3661
-3659
-3661
-3661
-3661
-3661
-3661
-3664
-3661
-3660
-3660
-3661
-3680
-3648
-3654
-3657
-3661
-3657
-3661
-3658
-3660
-3661
-3661
-3662
-3661
-3661
-3658
-3658
-3655
-3656
-3656
-3664
-3664
-3686
-3700
-3709
-3714
-3718
-3718
-3727
-3731
-3760
-3761
-3764
-3767
-3770
-3773
-3778
-3784
-3791
-3793
-3798
-3800
-3800
-3803
-3805
-3822
-3807
-3793
-3792
-3774
-3766
-3766
-3764
-3759
-3759
-3756
-3755
-3754
-3750
-3738
-3731
-3723
-3718
-3713
-3707
-3705
-3706
-3712
-3718
-3734
-3764
-3777
-3785
-3792
-3795
-3799
-3807
-3812
-3816
-3829
-3834
-3848
-3852
-3863
-3870
-3876
-3886
-3888
-3889
-3893
-3894
-3908
-3903
-3884
-3894
-3898
-3900
-3904
-3905
-3909
-3914
-3919
-3922
-3925
-3925
-3927
-3929
-3929
-3929
-3932
-3936
-3939
-3940
-3939
-3936
-3932
-3925
-3928
-3932
-3935
-3938
-3944
-3944
-3944
-3943
-3944
-3944
-3943
-3945
-3944
-3945
-3945
-3944
-3945
-3945
-3967
-3947
-3942
-3951
-3954
-3958
-3965
-3962
-3964
-3968
-3969
-3970
-3969
-3960
-3946
-3925
-3904
-3892
-3890
-3875
-3837
-3841
-3839
-3834
-3832
-3829
-3827
-3825
-3826
-3824
-3822
-3822
-3824
-3824
-3821
-3821
-3820
-3822
-3821
-3832
-3849
-3854
-3872
-3856
-3848
-3857
-3862
-3866
-3867
-3868
-3868
-3868
-3871
-3873
-3873
-3872
-3870
-3869
-3870
-3868
-3868
-3868
-3868
-3867
-3868
-3868
-3868
-3868
-3868
-3867
-3868
-3867
-3867
-3866
-3865
-3865
-3865
-3865
-3868
-3863
-3863
-3862
-3868
-3882
-3846
-3859
-3861
-3861
-3862
-3863
-3863
-3867
-3868
-3868
-3871
-3869
-3867
-3866
-3866
-3863
-3866
-3862
-3865
-3864
-3865
-3866
-3866
-3865
-3867
-3867
-3868
-3868
-3868
-3869
-3871
-3871
-3871
-3873
-3875
-3872
-3873
-3872
-3877
-3896
-3861
-3869
-3875
-3876
-3878
-3878
-3881
-3881
-3884
-3885
-3887
-3887
-3887
-3885
-3884
-3884
-3884
-3883
-3884
-3885
-3885
-3887
-3886
-3887
-3887
-3887
-3889
-3887
-3887
-3889
-3889
-3890
-3891
-3891
-3891
-3890
-3890
-3888
-3900
-3903
-3875
-3887
-3889
-3891
-3891
-3891
-3892
-3891
-3894
-3895
-3896
-3895
-3892
-3891
-3889
-3888
-3889
-3889
-3889
-3889
-3890
-3890
-3891
-3890
-3890
-3890
-3890
-3889
-3891
-3890
-3890
-3889
-3892
-3890
-3887
-3887
-3886
-3896
-3894
-3869
-3879
-3879
-3879
-3879
-3879
-3876
-3877
-3878
-3878
-3879
-3876
-3874
-3870
-3868
-3867
-3865
-3865
-3864
-3863
-3863
-3861
-3861
-3859
-3857
-3856
-3855
-3853
-3853
-3853
-3851
-3852
-3850
-3851
-3851
-3851
-3852
-3853
-3852
-3849
-3849
-3853
-3873
-3845
-3846
-3852
-3854
-3856
-3857
-3858
-3860
-3863
-3864
-3868
-3868
-3868
-3867
-3866
-3867
-3868
-3868
-3870
-3870
-3870
-3872
-3873
-3873
-3873
-3873
-3875
-3875
-3874
-3875
-3876
-3877
-3877
-3877
-3878
-3880
-3879
-3879
-3881
-3880
-3883
-3883
-3881
-3881
-3882
-3887
-3903
-3869
-3879
-3881
-3884
-3883
-3885
-3885
-3886
-3887
-3889
-3891
-3890
-3890
-3887
-3887
-3888
-3887
-3887
-3887
-3888
-3887
-3889
-3889
-3888
-3887
-3888
-3888
-3888
-3888
-3888
-3888
-3887
-3888
-3887
-3887
-3887
-3887
-3888
-3887
-3889
-3889
-3891
-3891
-3889
-3891
-3894
-3915
-3885
-3889
-3894
-3900
-3900
-3900
-3903
-3904
-3904
-3908
-3911
-3910
-3910
-3908
-3907
-3907
-3906
-3907
-3908
-3907
-3908
-3910
-3909
-3910
-3909
-3910
-3910
-3911
-3910
-3911
-3911
-3912
-3911
-3913
-3911
-3912
-3912
-3914
-3913
-3911
-3910
-3911
-3925
-3915
-3898
-3908
-3908
-3910
-3909
-3910
-3910
-3910
-3910
-3911
-3912
-3910
-3907
-3906
-3904
-3903
-3902
-3900
-3899
-3899
-3898
-3898
-3895
-3896
-3895
-3892
-3893
-3892
-3890
-3891
-3889
-3889
-3889
-3888
-3888
-3888
-3887
-3891
-3887
-3887
-3886
-3888
-3907
-3879
-3880
-3886
-3887
-3887
-3889
-3890
-3890
-3892
-3893
-3895
-3898
-3895
-3896
-3893
-3892
-3893
-3895
-3893
-3895
-3895
-3896
-3896
-3896
-3897
-3898
-3897
-3897
-3899
-3899
-3898
-3900
-3901
-3902
-3901
-3902
-3902
-3903
-3904
-3905
-3904
-3902
-3903
-3904
-3924
-3893
-3896
-3900
-3901
-3903
-3903
-3903
-3905
-3905
-3906
-3909
-3908
-3908
-3906
-3908
-3906
-3906
-3908
-3909
-3908
-3909
-3910
-3912
-3913
-3913
-3915
-3916
-3917
-3919
-3919
-3922
-3923
-3925
-3924
-3926
-3927
-3927
-3929
-3931
-3932
-3936
-3932
-3932
-3934
-3941
-3955
-3923
-3933
-3938
-3939
-3940
-3942
-3944
-3945
-3945
-3949
-3952
-3953
-3951
-3949
-3951
-3949
-3952
-3950
-3953
-3953
-3953
-3954
-3955
-3954
-3955
-3956
-3955
-3956
-3955
-3956
-3957
-3956
-3956
-3959
-3957
-3960
-3960
-3958
-3958
-3959
-3970
-3964
-3944
-3958
-3959
-3960
-3962
-3962
-3963
-3963
-3965
-3968
-3968
-3968
-3966
-3962
-3962
-3962
-3960
-3960
-3960
-3958
-3958
-3958
-3957
-3956
-3956
-3955
-3953
-3954
-3953
-3953
-3953
-3952
-3952
-3952
-3951
-3953
-3951
-3949
-3948
-3947
-3961
-3953
-3934
-3944
-3944
-3944
-3945
-3944
-3945
-3946
-3946
-3949
-3949
-3948
-3948
-3946
-3944
-3945
-3944
-3946
-3945
-3946
-3947
-3947
-3948
-3948
-3949
-3948
-3949
-3950
-3949
-3953
-3950
-3951
-3953
-3952
-3951
-3951
-3951
-3948
-3923
-3898
-3903
-3897
-3894
-3890
-3900
-3900
-3874
-3886
-3886
-3887
-3886
-3887
-3885
-3887
-3895
-3897
-3900
-3900
-3902
-3897
-3893
-3896
-3893
-3898
-3897
-3893
-3887
-3881
-3877
-3872
-3868
-3866
-3864
-3863
-3862
-3863
-3866
-3864
-3866
-3863
-3867
-3870
-3873
-3869
-3873
-3872
-3874
-3877
-3874
-3873
-3876
-3888
-3886
-3859
-3868
-3865
-3865
-3863
-3864
-3865
-3865
-3867
-3867
-3866
-3867
-3861
-3855
-3855
-3847
-3849
-3846
-3845
-3843
-3841
-3891
-3952
-3987
-4000
-4000
-4000
-4000
-4000
-4000
-4000
-4000
-4000
-4000
-4000
-4000
-4000
-4000
-4000
-4000
-4000
-4000
-4000
-4000
-4000
-4000
-4000
-4000
-4000
-4000
-4000
-4000
-4000
-4000
-4000
-4000
-4000
-4000
-4000
-4000
-4000
-4000
-4000
-4000
-4000
-4000
-4000
-4000
-4000
-4000
-4000
-4000
-4000
-4000
-4000
-4000
-4000
-4000
-4000
-4000
-4000
-4000
-4000
-4000
-4000
-4000
-4000
-4000
-4000
-4000
-4000
-4000
-4000
-4000
-4000
-4000
-4000
-4000
-4000
-4000
-4000
-4000
-4000
-4000
-4000
-4000
-4000
-4000
-4000
-4000
-4000
-4000
-4000
-4000
-4000
-4000
-4000
-4000
-4000
-4000
-4000
-4000
-4000
-4000
-4000
-4000
-4000
-4000
-4000
-4000
-4000
-4000
-4000
-4000
-4000
-4000
-4000
-4000
-4000
-4000
-4000
-4000
-4000
-4000
-4000
-4000
-4000
-4000
-4000
-4000
-4000
-4000
-4000
-4000
-4000
-4000
-4000
-4000
-4000
-4000
-4000
-4000
-4000
-4000
-4000
-4000
-4000
-4000
-4000
-4000
-4000
-4000
-4000
-4000
-4000
-4000
-4000
-4000
-4000
-4000
-4000
-4000
-4000
-4000
-4000
-4000
-4000
-4000
-4000
-4000
-4000
-4000
-4000
-4000
-4000
-4000
-4000
-4000
-4000
-4000
-4000
-4000
-4000
-4000
-4000
-4000
-4000
-4000
-4000
-4000
-3989
-4000
-4000
-4000
-4000
-3974
-4000
-4000
-4000
-4000
-3954
-3978
-4000
-4000
-3966
-3913
-3939
-3987
-3981
-3937
-3885
-3909
-3952
-3953
-3907
-3864
-3893
-3936
-3942
-3893
-3840
-3876
-3924
-3931
-3901
-3831
-3878
-3938
-3948
-3911
-3887
-3911
-3949
-3953
-3930
-3894
-3905
-3935
-3928
-3886
-3844
-3866
-3908
-3906
-3870
-3837
-3864
-3901
-3899
-3862
-3829
-3849
-3884
-3883
-3863
-3847
-3865
-3880
-3878
-3855
-3838
-3853
-3869
-3868
-3849
-3831
-3846
-3865
-3856
-3813
-3780
-3812
-3832
-3818
-3764
-3694
-3730
-3775
-3775
-3721
-3659
-3725
-3795
-3809
-3759
-3664
-3624
-3617
-3625
-3626
-3637
-3684
-3743
-3727
-3661
-3616
-3670
-3747
-3747
-3680
-2582
-3729
-4000
-4000
-4000
-4000
-4000
-4000
-4000
-4000
-4000
-4000
-4000
-4000
-4000
-4000
-4000
-4000
-4000
-4000
-893
-4000
-4000
-4000
-4000
-4000
-4000
-4000
-4000
-4000
-4000
-4000
-4000
-4000
-4000
-4000
-4000
-4000
-4000
-4000
-4000
-4000
-4000
-4000
-4000
-4000
-4000
-4000
-4000
-4000
-4000
-4000
-4000
-4000
-4000
4000
3093
-657
-801
-779
-700
-744
-872
-976
-933
-858
-893
-959
-990
-954
-864
-918
-981
-988
-1099
-1091
-1117
-1105
-1098
-981
-875
-902
-975
-993
-912
-830
-861
-951
-981
-993
-1082
-1081
-1098
-1126
-1120
-1075
-1008
-1026
-1035
-1007
-937
-973
-1041
-1034
-957
-922
-980
-1088
-1120
-1141
-1139
-1162
-1185
-1205
-1203
-1165
-1448
-1375
-1346
-1346
-1353
-1357
-1210
-1104
-1107
-1193
-1271
-1304
-1321
-1317
-1310
-1327
-1349
-1360
-1360
-1365
-1388
-1407
-1418
-1416
-1420
-1440
-1457
-1464
-1460
-1461
-1476
-1492
-1500
-1496
-1498
-1514
-1530
-1538
-1534
-1535
-1550
-1572
-1589
-1557
-1571
-1586
-1599
-1611
-1609
-1611
-1628
-1643
-1651
-1652
-1656
-1666
-1679
-1686
-1685
-1687
-1703
-1715
-1723
-1724
-1727
-1739
-1755
-1762
-1762
-1763
-1777
-1789
-1798
-1798
-1799
-1810
-1822
-1832
-1827
-1828
-1843
-1855
-1867
-1865
-1866
-1877
-1893
-1921
-1895
-1896
-1912
-1929
-1937
-1939
-1939
-1952
-1966
-1977
-1977
-1979
-1989
-2001
-2007
-2005
-2007
-2020
-2031
-2039
-2040
-2040
-2052
-2064
-2072
-2071
-2070
-2083
-2096
-2101
-2099
-2101
-2112
-2123
-2130
-2129
-2127
-2138
-2151
-2157
-2158
-2155
-2166
-2176
-2185
-2198
-2178
-2183
-2201
-2210
-2207
-2209
-2218
-2231
-2239
-2237
-2240
-2249
-2260
-2264
-2261
-2258
-2268
-2278
-2286
-2284
-2280
-2291
-2300
-2304
-2294
-2291
-2292
-2289
-2249
-2237
-2214
-2250
-2275
-2249
-2236
-2189
-2188
-2242
-2259
-2221
-2162
-2205
-2273
-2320
-2246
-2168
-2191
-2281
-2315
-2259
-2171
-2178
-2249
-2313
-2624
-2642
-2645
-2644
-2646
-2642
-2645
-2702
-2685
-2687
-2651
-2600
-2351
-2458
-2482
-2473
-2460
-2566
-2642
-2637
-2621
-2609
-2605
-2599
-2602
-2600
-2603
-2598
-2607
-2607
-2603
-2595
-2598
-2618
-2587
-2587
-2585
-2530
-2516
-2506
-2513
-2505
-2510
-2540
-2550
-2549
-2542
-2537
-2531
-2542
-2534
-2533
-2533
-2540
-2546
-2547
-2534
-2532
-2513
-2381
-2008
-1968
-1976
-2114
-2202
-2193
-2125
-2130
-2225
-2255
-2230
-2154
-2159
-2249
-2281
-2254
-2191
-2169
-2320
-2399
-2477
-2395
-2411
-2417
-2425
-2430
-2439
-2447
-2454
-2457
-2458
-2457
-2462
-2468
-2470
-2479
-2482
-2489
-2502
-2505
-2511
-2517
-2519
-2524
-2532
-2534
-2540
-2547
-2551
-2556
-2564
-2572
-2574
-2581
-2588
-2595
-2598
-2603
-2606
-2620
-2636
-2611
-2625
-2629
-2630
-2636
-2642
-2646
-2655
-2663
-2668
-2675
-2682
-2686
-2691
-2693
-2699
-2704
-2710
-2714
-2721
-2726
-2732
-2737
-2745
-2750
-2755
-2758
-2765
-2771
-2775
-2780
-2788
-2791
-2801
-2807
-2814
-2828
-2836
-2863
-2851
-2849
-2862
-2869
-2874
-2881
-2884
-2889
-2894
-2902
-2906
-2912
-2914
-2914
-2919
-2922
-2924
-2930
-2933
-2936
-2942
-2947
-2946
-2957
-2958
-2964
-2966
-2972
-2975
-2979
-2984
-2986
-2991
-2995
-3001
-3004
-3006
-3011
-3012
-3021
-3042
-3013
-3024
-3035
-3036
-3042
-3045
-3049
-3055
-3058
-3064
-3068
-3071
-3075
-3073
-3076
-3078
-3081
-3084
-3088
-3090
-3094
-3098
-3101
-3103
-3109
-3110
-3112
-3117
-3120
-3123
-3126
-3128
-3133
-3137
-3137
-3139
-3148
-3150
-3153
-3156
-3158
-3161
-3163
-3178
-3185
-3161
-3174
-3181
-3183
-3188
-3189
-3194
-3197
-3203
-3204
-3212
-3213
-3213
-3215
-3215
-3219
-3221
-3225
-3227
-3230
-3230
-3238
-3237
-3242
-3243
-3247
-3248
-3251
-3254
-3257
-3259
-3263
-3265
-3268
-3269
-3273
-3277
-3279
-3281
-3285
-3287
-3292
-3294
-3291
-3296
-3300
-3319
-3300
-3297
-3305
-3307
-3312
-3315
-3318
-3320
-3322
-3326
-3331
-3334
-3336
-3335
-3337
-3337
-3340
-3341
-3342
-3345
-3348
-3349
-3352
-3355
-3359
-3358
-3362
-3363
-3365
-3367
-3369
-3372
-3374
-3375
-3379
-3379
-3382
-3384
-3386
-3389
-3391
-3393
-3391
-3394
-3405
-3409
-3386
-3400
-3401
-3406
-3406
-3410
-3411
-3414
-3417
-3419
-3421
-3425
-3421
-3424
-3424
-3422
-3425
-3428
-3428
-3429
-3431
-3434
-3432
-3435
-3436
-3438
-3437
-3440
-3442
-3442
-3444
-3446
-3447
-3448
-3451
-3450
-3451
-3454
-3454
-3460
-3456
-3457
-3458
-3463
-3482
-3454
-3457
-3466
-3464
-3470
-3470
-3471
-3473
-3476
-3478
-3482
-3483
-3483
-3483
-3479
-3483
-3483
-3485
-3485
-3487
-3490
-3490
-3492
-3492
-3494
-3495
-3496
-3496
-3499
-3499
-3499
-3502
-3501
-3503
-3506
-3504
-3509
-3508
-3512
-3513
-3511
-3511
-3512
-3525
-3530
-3504
-3517
-3520
-3522
-3523
-3525
-3526
-3529
-3530
-3535
-3536
-3540
-3537
-3537
-3534
-3537
-3538
-3539
-3539
-3542
-3544
-3544
-3547
-3545
-3549
-3549
-3551
-3552
-3554
-3556
-3559
-3557
-3559
-3560
-3563
-3564
-3565
-3567
-3569
-3567
-3568
-3571
-3581
-3583
-3561
-3573
-3575
-3574
-3581
-3579
-3582
-3584
-3586
-3587
-3591
-3591
-3589
-3587
-3586
-3588
-3590
-3588
-3589
-3592
-3591
-3593
-3594
-3596
-3596
-3598
-3599
-3598
-3600
-3602
-3602
-3602
-3605
-3605
-3608
-3605
-3605
-3607
-3609
-3624
-3600
-3601
-3607
-3608
-3611
-3610
-3612
-3614
-3614
-3615
-3619
-3622
-3619
-3615
-3616
-3615
-3613
-3617
-3616
-3616
-3617
-3618
-3622
-3620
-3621
-3621
-3624
-3625
-3623
-3625
-3625
-3625
-3626
-3628
-3628
-3628
-3625
-3628
-3627
-3643
-3625
-3620
-3627
-3628
-3628
-3630
-3632
-3632
-3632
-3634
-3637
-3639
-3636
-3635
-3633
-3632
-3632
-3631
-3632
-3631
-3632
-3633
-3632
-3631
-3634
-3632
-3631
-3633
-3633
-3632
-3632
-3633
-3635
-3633
-3634
-3638
-3635
-3634
-3635
-3635
-3656
-3629
-3627
-3635
-3636
-3637
-3638
-3636
-3641
-3641
-3642
-3643
-3643
-3643
-3641
-3639
-3637
-3639
-3638
-3638
-3640
-3638
-3641
-3641
-3642
-3642
-3642
-3643
-3643
-3645
-3644
-3643
-3646
-3642
-3636
-3610
-3602
-3595
-3595
-3593
-3589
-3589
-3585
-3595
-3588
-3560
-3562
-3551
-3533
-3473
-3380
-3341
-3311
-3281
-3261
-4000
-4000
-4000
-4000
-4000
-3764
-3750
-3457
-3256
-3190
-3207
-3193
-3184
-3122
-3113
-3114
-3104
-3103
-3104
-3102
-3111
-3247
-4000
-4000
-4000
-4000
-3400
-2456
-2329
-371
1153
2602
3399
4000
4000
4000
4000
427
-1552
-2830
-4000
-3048
-1687
-4000
-4000
-4000
-4000
-4000
-4000
578
-3624
-4000
-4000
-4000
-4000
-4000
-4000
-4000
-4000
-4000
-4000
-4000
-4000
-4000
-4000
-4000
-4000
-4000
-4000
-4000
-4000
-4000
-4000
-4000
-4000
-4000
-4000
-4000
-4000
-4000
-4000
-4000
-4000
-4000
-4000
-4000
-4000
-4000
-4000
-4000
-4000
-4000
-4000
-4000
-4000
-4000
-4000
-4000
-2510
608
-4000
-4000
-4000
-4000
-4000
-4000
-4000
-4000
-4000
-4000
-3972
-3605
-4000
-4000
-4000
-4000
-4000
-4000
-4000
-4000
-4000
-4000
-4000
-4000
-4000
-4000
-4000
-4000
-4000
-4000
-4000
-4000
-4000
-4000
-4000
-4000
-4000
-4000
1518
-4000
-4000
-2407
-3801
-4000
-4000
-4000
-4000
-4000
-4000
-4000
-4000
-4000
-4000
-4000
-4000
-4000
-4000
-4000
-4000
-4000
-4000
-4000
-4000
-4000
-4000
-4000
-4000
-4000
-4000
-4000
-4000
-4000
-4000
-4000
-4000
-4000
-4000
-3167
-1789
-1486
-2677
-4000
-4000
-4000
-4000
-4000
-4000
-4000
-4000
-4000
-4000
-4000
-4000
-4000
-4000
-4000
-4000
-4000
-4000
-4000
-4000
-4000
-4000
-4000
-4000
-4000
-4000
-4000
-4000
-4000
-4000
-4000
-4000
-4000
-4000
-4000
-4000
-3755
-4000
-4000
-4000
-4000
-4000
-4000
-4000
-4000
-4000
-3703
-3797
-3872
-4000
-4000
-4000
-4000
-4000
-4000
-4000
-4000
-4000
-4000
-4000
-4000
-4000
-4000
-4000
-4000
-4000
-4000
-4000
-4000
-3507
2155
4000
-487
-3847
-3868
-3873
-3867
-3903
-3915
-3905
-3867
-3801
-3776
-3772
-3762
-4000
-4000
-4000
-4000
-4000
-4000
-3570
-3445
-3365
-3312
-3298
-3843
-4000
-3767
-4000
-4000
-262
1192
822
-2287
-4000
-4000
-4000
-2135
165
-3774
-4000
-4000
-4000
-4000
-4000
-4000
-4000
-4000
-4000
-4000
-4000
-4000
-4000
-4000
-4000
-4000
-2807
-1606
-1560
-1442
-1438
-1834
-1927
-1879
-1746
-1689
-1682
-1708
-1738
-1756
-1762
-1758
-1766
-1762
-1764
-1760
-1743
-1741
-1972
-2033
-1828
-1797
-2219
-2758
-2286
-2308
-2052
-2080
-2213
-2284
-2744
-2988
-3018
-3005
-2977
-2971
-3025
-3925
-4000
-2459
-2338
-2312
-2195
-2170
-2168
-2187
-2222
-2715
-3098
-3073
-2895
-2911
-3010
-2959
-3013
-3037
-3041
-3040
-3074
-3134
-3178
-3213
-3183
-3159
-3170
-3186
-3158
-3174
-3178
-3190
-3195
-3208
-3218
-3228
-3194
-3220
-3225
-3225
-3235
-3242
-3249
-3248
-3258
-3275
-3299
-3526
-4000
-3774
-3568
-3442
-3341
-3253
-3240
-3228
-3186
-3163
-3148
-3127
-2944
-2880
-3072
-3285
-3405
-3422
-3173
-3040
-3062
-3073
-3140
-3239
-3306
-3359
-3343
-3522
-3465
-3380
-3339
-3412
-3408
-3381
-3378
-3329
-3295
-3308
-3378
-3463
-3543
-3576
-3574
-3573
-3580
-3578
-3567
-3566
-3563
-3564
-3580
-3549
-3547
-3554
-3547
-3544
-3540
-3532
-3535
-3537
-3530
-3531
-3529
-3522
-3512
-3510
-3505
-3499
-3491
-3486
-3466
-3459
-3458
-3461
-3444
-3342
-3319
-3322
-3331
-3353
-3396
-3410
-3408
-3404
-3396
-3389
-3353
-3345
-3304
-3264
-3254
-3237
-3117
-3148
-3310
-3379
-3410
-3432
-3440
-3436
-3439
-3435
-3436
-3435
-3427
-3420
-3358
-3232
-3101
-2895
-2684
-2445
-2567
-2642
-2480
-2453
-2726
-2933
-3250
-3343
-3378
-3367
-3336
-3262
-3085
-3344
-3484
-3515
-3509
-3534
-3544
-3557
-3567
-3573
-3583
-3591
-3593
-3598
-3609
-3612
-3612
-3611
-3617
-3630
-3638
-3640
-3648
-3652
-3654
-3661
-3665
-3665
-3673
-3676
-3680
-3684
-3690
-3694
-3702
-3709
-3714
-3718
-3723
-3728
-3753
-3722
-3735
-3742
-3745
-3748
-3754
-3759
-3756
-3759
-3767
-3771
-3764
-3774
-3768
-3770
-3765
-3564
-3290
-3251
-3254
-3274
-3642
-3757
-3751
-3757
-3754
-3748
-3755
-3753
-3748
-3744
-3739
-3735
-3735
-3738
-3744
-3742
-3721
-3739
-3747
-3749
-3755
-3758
-3757
-3760
-3762
-3767
-3770
-3767
-3770
-3762
-3763
-3765
-3762
-3768
-3765
-3763
-3768
-3766
-3766
-3767
-3765
-3769
-3768
-3768
-3768
-3772
-3774
-3770
-3770
-3769
-3769
-3790
-3764
-3761
-3770
-3771
-3772
-3774
-3772
-3774
-3777
-3776
-3781
-3780
-3780
-3774
-3777
-3774
-3774
-3776
-3774
-3777
-3776
-3777
-3778
-3779
-3777
-3780
-3781
-3777
-3780
-3782
-3781
-3779
-3781
-3784
-3782
-3785
-3784
-3781
-3785
-3781
-3793
-3791
-3769
-3781
-3782
-3782
-3782
-3786
-3780
-3788
-3788
-3787
-3790
-3787
-3791
-3787
-3785
-3785
-3787
-3788
-3784
-3790
-3786
-3790
-3787
-3788
-3787
-3787
-3791
-3789
-3788
-3790
-3789
-3786
-3791
-3788
-3787
-3790
-3789
-3791
-3787
-3791
-3791
-3784
-3782
-3788
-3801
-3778
-3775
-3782
-3782
-3781
-3785
-3783
-3781
-3784
-3783
-3787
-3786
-3787
-3783
-3783
-3783
-3782
-3778
-3782
-3781
-3781
-3782
-3780
-3780
-3782
-3781
-3783
-3779
-3781
-3783
-3779
-3778
-3780
-3778
-3776
-3777
-3777
-3775
-3778
-3777
-3774
-3775
-3775
-3782
-3789
-3761
-3772
-3774
-3774
-3774
-3774
-3777
-3774
-3776
-3777
-3775
-3777
-3774
-3774
-3769
-3773
-3769
-3772
-3769
-3772
-3772
-3771
-3774
-3774
-3775
-3774
-3774
-3776
-3774
-3775
-3772
-3775
-3774
-3773
-3774
-3774
-3774
-3770
-3773
-3774
-3791
-3756
-3765
-3771
-3771
-3771
-3773
-3771
-3774
-3772
-3774
-3774
-3775
-3774
-3768
-3765
-3766
-3765
-3764
-3764
-3764
-3762
-3762
-3761
-3761
-3760
-3762
-3757
-3758
-3760
-3755
-3758
-3754
-3757
-3756
-3754
-3754
-3752
-3760
-3762
-3736
-3746
-3749
-3749
-3749
-3748
-3748
-3749
-3750
-3750
-3751
-3750
-3746
-3744
-3743
-3738
-3740
-3738
-3738
-3737
-3738
-3737
-3737
-3737
-3736
-3737
-3734
-3734
-3734
-3733
-3731
-3729
-3731
-3732
-3729
-3729
-3732
-3728
-3728
-3726
-3730
-3746
-3711
-3720
-3722
-3725
-3724
-3723
-3723
-3725
-3726
-3728
-3726
-3727
-3725
-3723
-3720
-3719
-3719
-3718
-3718
-3720
-3717
-3718
-3718
-3717
-3718
-3718
-3715
-3716
-3715
-3717
-3719
-3724
-3721
-3722
-3720
-3719
-3720
-3719
-3718
-3718
-3718
-3714
-3713
-3715
-3731
-3712
-3702
-3708
-3712
-3712
-3710
-3711
-3711
-3711
-3710
-3709
-3710
-3711
-3703
-3699
-3701
-3694
-3693
-3693
-3690
-3691
-3692
-3691
-3687
-3688
-3689
-3687
-3686
-3687
-3683
-3684
-3681
-3683
-3680
-3680
-3679
-3681
-3677
-3680
-3679
-3677
-3676
-3675
-3673
-3693
-3659
-3665
-3668
-3669
-3667
-3667
-3666
-3668
-3668
-3666
-3669
-3668
-3666
-3662
-3661
-3661
-3657
-3657
-3656
-3656
-3654
-3652
-3655
-3651
-3650
-3649
-3650
-3645
-3647
-3645
-3645
-3643
-3644
-3643
-3642
-3641
-3643
-3637
-3637
-3636
-3646
-3642
-3618
-3630
-3630
-3631
-3630
-3630
-3629
-3630
-3629
-3630
-3633
-3630
-3626
-3624
-3621
-3620
-3625
-3633
-3632
-3630
-3633
-3630
-3630
-3626
-3627
-3627
-3625
-3623
-3624
-3624
-3621
-3621
-3619
-3620
-3628
-3629
-3628
-3624
-3625
-3623
-3626
-3638
-3605
-3617
-3616
-3618
-3615
-3617
-3615
-3617
-3614
-3618
-3614
-3614
-3613
-3609
-3605
-3605
-3605
-3602
-3602
-3600
-3601
-3599
-3598
-3597
-3595
-3594
-3594
-3591
-3591
-3590
-3587
-3588
-3587
-3585
-3586
-3585
-3586
-3584
-3580
-3578
-3579
-3597
-3571
-3564
-3573
-3573
-3572
-3568
-3571
-3570
-3570
-3569
-3571
-3570
-3569
-3565
-3552
-3551
-3550
-3549
-3546
-3548
-3548
-3546
-3546
-3546
-3545
-3544
-3544
-3542
-3539
-3537
-3535
-3534
-3530
-3531
-3529
-3530
-3527
-3529
-3528
-3524
-3526
-3525
-3541
-3530
-3511
-3522
-3521
-3522
-3521
-3520
-3519
-3518
-3519
-3520
-3520
-3518
-3520
-3517
-3515
-3514
-3512
-3511
-3512
-3511
-3510
-3510
-3509
-3506
-3506
-3504
-3505
-3501
-3501
-3501
-3500
-3497
-3496
-3495
-3495
-3495
-3492
-3492
-3493
-3489
-3488
-3486
-3491
-3499
-3464
-3473
-3473
-3473
-3473
-3471
-3469
-3472
-3471
-3472
-3470
-3472
-3470
-3463
-3464
-3460
-3459
-3459
-3456
-3459
-3454
-3456
-3454
-3454
-3452
-3451
-3448
-3447
-3446
-3444
-3442
-3440
-3439
-3439
-3436
-3436
-3435
-3436
-3430
-3430
-3428
-3444
-3424
-3415
-3420
-3424
-3419
-3421
-3419
-3420
-3420
-3420
-3419
-3406
-3403
-3401
-3398
-3399
-3397
-3396
-3394
-3391
-3391
-3389
-3389
-3387
-3385
-3385
-3383
-3382
-3382
-3379
-3379
-3379
-3377
-3376
-3374
-3372
-3373
-3370
-3370
-3371
-3365
-3363
-3363
-3366
-3381
-3345
-3353
-3356
-3355
-3354
-3353
-3353
-3352
-3352
-3353
-3352
-3351
-3349
-3346
-3342
-3341
-3339
-3339
-3336
-3336
-3335
-3334
-3333
-3333
-3330
-3330
-3329
-3330
-3326
-3328
-3324
-3325
-3324
-3323
-3324
-3322
-3322
-3322
-3321
-3322
-3320
-3317
-3319
-3313
-3332
-3313
-3303
-3309
-3309
-3309
-3308
-3308
-3306
-3308
-3310
-3308
-3308
-3307
-3304
-3302
-3299
-3299
-3297
-3295
-3296
-3294
-3293
-3293
-3291
-3290
-3288
-3288
-3288
-3287
-3285
-3286
-3285
-3284
-3282
-3281
-3280
-3279
-3279
-3277
-3278
-3279
-3274
-3273
-3272
-3279
-3284
-3256
-3266
-3266
-3266
-3266
-3265
-3264
-3264
-3265
-3266
-3270
-3268
-3266
-3266
-3263
-3262
-3259
-3260
-3259
-3257
-3256
-3255
-3255
-3252
-3252
-3250
-3249
-3248
-3247
-3245
-3245
-3244
-3242
-3240
-3240
-3240
-3239
-3238
-3232
-3232
-3228
-3242
-3229
-3213
-3222
-3222
-3222
-3222
-3220
-3221
-3219
-3221
-3220
-3222
-3219
-3215
-3211
-3210
-3208
-3209
-3206
-3205
-3204
-3202
-3200
-3200
-3199
-3196
-3196
-3195
-3188
-3186
-3180
-3179
-3176
-3178
-3175
-3174
-3174
-3173
-3173
-3171
-3168
-3167
-3170
-3186
-3154
-3155
-3161
-3160
-3159
-3159
-3160
-3158
-3161
-3163
-3163
-3161
-3159
-3155
-3152
-3149
-3146
-3137
-3138
-3132
-3133
-3130
-3125
-3101
-2954
-2864
-2777
-2743
-2740
-2747
-2760
-2763
-2760
-2748
-2736
-2723
-2713
-2716
-2731
-2866
-3108
-3102
-3109
-3109
-3082
-3093
-3092
-3092
-3093
-3091
-3093
-3090
-3093
-3092
-3092
-3091
-3088
-3082
-3082
-3081
-3080
-3077
-3078
-3077
-3075
-3075
-3075
-3072
-3072
-3069
-3068
-3066
-3067
-3068
-3064
-3063
-3062
-3058
-3058
-3055
-3056
-3050
-3046
-3041
-3033
-3032
-3028
-3038
-3031
-3010
-3018
-3021
-3020
-3022
-3022
-3025
-3025
-3029
-3028
-3027
-3025
-3023
-3022
-3021
-3021
-3019
-3023
-3018
-3026
-3040
-3043
-3053
-3061
-3060
-3065
-3069
-3065
-3062
-3066
-3064
-3064
-3064
-3060
-3059
-3053
-3041
-3036
-3030
-3030
-3032
-3039
-3049
-3020
-3026
-3036
-3044
-3046
-3041
-3038
-3037
-3052
-3050
-3047
-3042
-3033
-3022
-3022
-3020
-3017
-3012
-3008
-3004
-2988
-2980
-2967
-2949
-2935
-2923
-2922
-2953
-3060
-3030
-2932
-2912
-2894
-2868
-2847
-2834
-2825
-2816
-2791
-2758
-2744
-2749
-2761
-2729
-2731
-2736
-2719
-2134
-1798
-1718
-1736
-1798
-1901
-2207
-2722
-2717
-2707
-2705
-2704
-2710
-2710
-2717
-2720
-2721
-2721
-2718
-2713
-2706
-2707
-2709
-2714
-2717
-2721
-2723
-2723
-2730
-2748
-2797
-2852
-2936
-3096
-3150
-3187
-3315
-3532
-3619
-3618
-3510
-3385
-3293
-3248
-3247
-3317
-3601
-3864
-3948
-3918
-3751
-3615
-3556
-3354
-3153
-2838
-2680
-2663
-2669
-2673
-2676
-2679
-2683
-2681
-2685
-2684
-2685
-2689
-2689
-2685
-2688
-2685
-2688
-2689
-2689
-2693
-2698
-2701
-2705
-2716
-2714
-2714
-2718
-2722
-2745
-2714
-2720
-2723
-2725
-2722
-2722
-2723
-2726
-2727
-2728
-2726
-2727
-2720
-2720
-2714
-2720
-2712
-2706
-2698
-2691
-2687
-2683
-2684
-2683
-2681
-2680
-2681
-2676
-2674
-2674
-2672
-2671
-2671
-2671
-2671
-2673
-2673
-2668
-2674
-2673
-2670
-2668
-2666
-2665
-2684
-2652
-2651
-2658
-2661
-2657
-2660
-2659
-2660
-2661
-2666
-2666
-2666
-2669
-2665
-2662
-2661
-2663
-2664
-2664
-2664
-2665
-2667
-2664
-2666
-2666
-2667
-2664
-2668
-2666
-2666
-2668
-2668
-2667
-2668
-2669
-2667
-2672
-2668
-2665
-2670
-2680
-2672
-2653
-2665
-2665
-2669
-2668
-2671
-2671
-2673
-2678
-2677
-2680
-2682
-2678
-2676
-2675
-2675
-2673
-2674
-2676
-2677
-2678
-2675
-2677
-2679
-2677
-2676
-2680
-2678
-2679
-2680
-2679
-2682
-2679
-2681
-2682
-2685
-2683
-2682
-2683
-2683
-2704
-2678
-2674
-2684
-2685
-2684
-2688
-2690
-2695
-2696
-2698
-2700
-2701
-2700
-2700
-2697
-2699
-2697
-2699
-2699
-2699
-2701
-2701
-2701
-2703
-2703
-2705
-2704
-2706
-2708
-2705
-2709
-2708
-2706
-2701
-2709
-2704
-2708
-2706
-2708
-2708
-2705
-2721
-2714
-2699
-2706
-2710
-2712
-2712
-2710
-2715
-2716
-2714
-2722
-2720
-2720
-2719
-2717
-2717
-2716
-2715
-2718
-2717
-2716
-2720
-2719
-2720
-2718
-2720
-2720
-2720
-2720
-2720
-2722
-2720
-2721
-2723
-2720
-2722
-2726
-2724
-2725
-2722
-2723
-2723
-2739
-2725
-2715
-2720
-2725
-2722
-2726
-2725
-2728
-2730
-2729
-2736
-2735
-2735
-2734
-2730
-2734
-2733
-2726
-2737
-2734
-2734
-2732
-2737
-2735
-2736
-2733
-2737
-2735
-2732
-2736
-2735
-2735
-2735
-2737
-2737
-2736
-2739
-2739
-2740
-2736
-2739
-2739
-2759
-2729
-2731
-2741
-2739
-2741
-2744
-2742
-2743
-2745
-2750
-2750
-2752
-2750
-2749
-2745
-2746
-2747
-2747
-2744
-2749
-2751
-2750
-2749
-2752
-2752
-2751
-2754
-2754
-2753
-2755
-2754
-2754
-2757
-2756
-2756
-2759
-2757
-2757
-2756
-2758
-2776
-2755
-2750
-2758
-2760
-2761
-2763
-2764
-2763
-2765
-2769
-2772
-2772
-2772
-2770
-2768
-2767
-2768
-2769
-2768
-2769
-2769
-2772
-2773
-2774
-2774
-2774
-2774
-2775
-2776
-2776
-2775
-2778
-2778
-2777
-2777
-2778
-2782
-2785
-2787
-2782
-2784
-2785
-2785
-2800
-2777
-2776
-2780
-2779
-2785
-2783
-2781
-2785
-2784
-2787
-2787
-2787
-2785
-2784
-2781
-2781
-2780
-2780
-2780
-2781
-2779
-2780
-2782
-2782
-2781
-2780
-2782
-2783
-2781
-2784
-2782
-2781
-2783
-2781
-2784
-2783
-2784
-2785
-2786
-2783
-2787
-2788
-2784
-2785
-2784
-2799
-2793
-2773
-2778
-2779
-2780
-2782
-2782
-2784
-2782
-2789
-2790
-2792
-2790
-2791
-2787
-2786
-2787
-2786
-2788
-2788
-2789
-2791
-2790
-2793
-2791
-2793
-2793
-2795
-2793
-2795
-2795
-2795
-2798
-2796
-2798
-2797
-2797
-2798
-2799
-2797
-2800
-2800
-2805
-2802
-2802
-2803
-2809
-2823
-2790
-2800
-2806
-2808
-2809
-2807
-2811
-2811
-2812
-2814
-2818
-2815
-2817
-2813
-2814
-2813
-2814
-2814
-2814
-2815
-2816
-2818
-2818
-2820
-2820
-2819
-2822
-2824
-2824
-2821
-2826
-2823
-2827
-2824
-2827
-2826
-2827
-2828
-2831
-2831
-2828
-2828
-2831
-2845
-2830
-2818
-2829
-2833
-2833
-2833
-2834
-2836
-2837
-2839
-2840
-2842
-2842
-2839
-2837
-2838
-2837
-2838
-2837
-2838
-2839
-2839
-2840
-2840
-2841
-2840
-2842
-2842
-2843
-2842
-2844
-2843
-2844
-2845
-2847
-2845
-2848
-2846
-2852
-2848
-2847
-2846
-2849
-2870
-2842
-2840
-2850
-2850
-2851
-2852
-2852
-2853
-2855
-2856
-2859
-2862
-2860
-2861
-2857
-2860
-2859
-2860
-2876
-2891
-2891
-2888
-2853
-2863
-2861
-2865
-2865
-2866
-2867
-2870
-2871
-2871
-2871
-2874
-2871
-2873
-2874
-2873
-2877
-2872
-2874
-2872
-2877
-2894
-2862
-2870
-2874
-2875
-2876
-2877
-2877
-2878
-2881
-2881
-2886
-2884
-2883
-2881
-2880
-2878
-2879
-2880
-2880
-2880
-2880
-2881
-2882
-2882
-2881
-2882
-2883
-2882
-2885
-2882
-2883
-2883
-2884
-2883
-2884
-2883
-2885
-2885
-2886
-2888
-2886
-2883
-2886
-2889
-2908
-2876
-2889
-2894
-2896
-2895
-2895
-2896
-2899
-2898
-2901
-2901
-2903
-2899
-2900
-2897
-2897
-2895
-2897
-2896
-2896
-2897
-2896
-2898
-2896
-2897
-2898
-2895
-2898
-2898
-2920
-2922
-2922
-2904
-2892
-2895
-2897
-2896
-2898
-2900
-2901
-2896
-2895
-2898
-2916
-2888
-2888
-2895
-2897
-2898
-2898
-2900
-2900
-2902
-2902
-2908
-2906
-2906
-2903
-2901
-2900
-2900
-2900
-2901
-2898
-2902
-2902
-2904
-2902
-2903
-2902
-2923
-2925
-2927
-2927
-2927
-2927
-2925
-2928
-2928
-2929
-2927
-2927
-2926
-2927
-2941
-2932
-2913
-2883
-2893
-2896
-2899
-2901
-2904
-2903
-2908
-2908
-2910
-2908
-2908
-2906
-2904
-2904
-2903
-2904
-2904
-2903
-2904
-2907
-2904
-2905
-2906
-2906
-2906
-2905
-2905
-2907
-2906
-2905
-2906
-2905
-2907
-2908
-2906
-2907
-2909
-2907
-2908
-2906
-2915
-2932
-2899
-2908
-2911
-2918
-2918
-3151
-3008
-2973
-2966
-2973
-2978
-2996
-3014
-3017
-2996
-3000
-3005
-3011
-3016
-3018
-3021
-3025
-3032
-3037
-3043
-3046
-3052
-3059
-3065
-3067
-3073
-3079
-3084
-3087
-3098
-3116
-3122
-3129
-3133
-3137
-3147
-3149
-3153
-3154
-3171
-3180
-3161
-3180
-3191
-3228
-3322
-3327
-3322
-2680
-3094
-3151
-3146
-3138
-3130
-3123
-3095
-3086
-3083
-3082
-3080
-3077
-3077
-3074
-3070
-3070
-3068
-3064
-3066
-3062
-3059
-3059
-3056
-3059
-3054
-3054
-3054
-3051
-3048
-3048
-3048
-3046
-3048
-3040
-3042
-3038
-3048
-3044
-3022
-3031
-3034
-3034
-3032
-3032
-3031
-3031
-3034
-3034
-3036
-3034
-3033
-3029
-3025
-3027
-3026
-3022
-3024
-3023
-3023
-3023
-3021
-3024
-3021
-3020
-3021
-3019
-3021
-3019
-3020
-3018
-3020
-3018
-3018
-3016
-3018
-3018
-3016
-3013
-3013
-3018
-3031
-2997
-3007
-3010
-3014
-3015
-3016
-3015
-3016
-3017
-3020
-3020
-3024
-3024
-3022
-3020
-3021
-3018
-3017
-3016
-3017
-3015
-3017
-3015
-3012
-3017
-3012
-3013
-3013
-3012
-3012
-3012
-3011
-3011
-3010
-3008
-3011
-3009
-3012
-3010
-3007
-3007
-3010
-3025
-3000
-3001
-3004
-3006
-3005
-3005
-3007
-3007
-3006
-3009
-3009
-3008
-3009
-3005
-3003
-3002
-3001
-3000
-3001
-3000
-2999
-2999
-2998
-2999
-2997
-3000
-2997
-2999
-2997
-2998
-2998
-2996
-2994
-3000
-2998
-2995
-2997
-2999
-3000
-2997
-2997
-2996
-3002
-3015
-2984
-2989
-2998
-2995
-2997
-2998
-2998
-2999
-3001
-3002
-3001
-3004
-3001
-3000
-2996
-2997
-2996
-2995
-2992
-2992
-2993
-2994
-2991
-2993
-2992
-2993
-2992
-2989
-2993
-2987
-2993
-2989
-2990
-2989
-2990
-2989
-2989
-2988
-2991
-2989
-2987
-2985
-2988
-3005
-2981
-2976
-2984
-2986
-2984
-2986
-2986
-2986
-2987
-2989
-2989
-2991
-2987
-2987
-2984
-2983
-2983
-2984
-2983
-2984
-2984
-2982
-2983
-2984
-2983
-2984
-2981
-2983
-2981
-2982
-2980
-2981
-2981
-2981
-2982
-2979
-2984
-2978
-2981
-2976
-2987
-2995
-2963
-2975
-2979
-2981
-2983
-2984
-2986
-2987
-2991
-2994
-2996
-3022
-3021
-3019
-3015
-3012
-3011
-3011
-3008
-3006
-3006
-3005
-3010
-3012
-3010
-3016
-3005
-3009
-3830
-4000
-4000
-4000
-3591
-3583
-4000
-4000
-4000
-4000
-4000
-4000
-4000
-4000
-4000
-4000
-4000
-4000
-4000
-4000
-4000
-4000
-4000
-4000
-4000
-4000
-4000
-4000
-4000
-4000
-4000
-4000
-4000
-4000
-4000
-4000
-4000
-4000
-4000
-4000
-4000
-4000
-4000
-4000
-4000
-4000
-4000
-4000
-4000
-1569
-1437
-3266
-4000
-4000
-4000
19
3960
4000
4000
4000
4000
4000
4000
4000
4000
4000
4000
4000
4000
4000
4000
4000
4000
4000
4000
3871
2276
1557
3008
4000
4000
4000
4000
4000
4000
4000
4000
4000
4000
4000
4000
4000
4000
4000
4000
4000
4000
4000
4000
4000
4000
4000
4000
4000
4000
4000
4000
4000
4000
4000
2575
-1937
-1542
-1844
-2537
-2326
-2406
-2607
-2154
-639
4000
4000
4000
4000
4000
-412
-2458
-2840
-3056
-3198
-3252
-3455
-3510
-3601
-3684
-3698
-3778
-3548
-3511
-3430
-3390
-3332
-3282
-3348
-3174
-3413
-3489
-3821
-3063
-3421
-4000
-2965
-4000
-3702
-3173
-3334
-3392
-2833
-3121
-3413
-3578
-3503
-3399
-3231
-3146
-3358
-3558
-3454
-3588
-2937
-2353
-2090
-2678
-3142
-2856
-1640
-2611
-3421
-3581
-3429
-3320
-3381
-3222
-3350
-3341
-3355
-3497
-3699
-3661
-3642
-3647
-4000
-4000
-4000
-3529
-3720
-3727
-3783
-3809
-3821
-3778
-3798
-3810
-3467
-3549
-3627
-3634
-3674
-3763
-3775
-3739
-3680
-3730
-3895
-3913
-3937
-3941
-3947
-3910
-3911
-4000
-4000
-4000
-4000
-4000
-4000
-4000
-4000
-4000
-4000
-4000
-4000
-4000
-4000
-4000
-4000
-4000
-4000
-3765
-4000
-4000
-4000
-4000
-4000
-4000
-4000
-4000
-4000
-3825
-3779
-3772
-3762
-3698
-4000
-4000
-4000
-4000
-4000
-4000
-4000
-4000
-4000
-4000
-4000
-4000
-4000
-4000
-4000
-4000
-4000
-4000
-4000
-4000
-4000
-4000
-4000
-4000
-4000
-4000
-4000
-4000
-3997
-3994
-3989
-3985
-3981
-3978
-3974
-3970
-3966
-3962
-3959
-3956
-3951
-3948
-3944
-3941
-3937
-3933
-3932
-3926
-3922
-3920
-3917
-3913
-3909
-3906
-3904
-3901
-3897
-3894
-3891
-3887
-3884
-3881
-3878
-3874
-3871
-3868
-3865
-3862
-3859
-3855
-3852
-3849
-3847
-3843
-3841
-3838
-3834
-3831
-3830
-3826
-3823
-3820
-3818
-3815
-3812
-3809
-3807
-3804
-3804
-3798
-3794
-3793
-3791
-3788
-3786
-3783
-3780
-3779
-3776
-3774
-3772
-3769
-3766
-3763
-3761
-3758
-3756
-3754
-3752
-3750
-3747
-3745
-3742
-3740
-3737
-3736
-3734
-3731
-3729
-3727
-3725
-3722
-3720
-3718
-3717
-3714
-3712
-3711
-3709
-3706
-3703
-3702
-3701
-3699
-3694
-3694
-3692
-3690
-3689
-3687
-3684
-3682
-3681
-3680
-3678
-3677
-3674
-3672
-3671
-3668
-3666
-3664
-3662
-3661
-3660
-3658
-3656
-3654
-3653
-3651
-3650
-3648
-3646
-3645
-3643
-3642
-3641
-3639
-3638
-3636
-3634
-3633
-3632
-3630
-3629
-3626
-3625
-3624
-3625
-3621
-3619
-3619
-3617
-3616
-3615
-3613
-3612
-3611
-3610
-3609
-3608
-3606
-3605
-3604
-3603
-3602
-3601
-3601
-3600
-3601
-3603
-3605
-3607
-3609
-3611
-3612
-3613
-3614
-3615
-3615
-3615
-3615
-3615
-3616
-3616
-3615
-3614
-3615
-3614
-3614
-3613
-3612
-3612
-3612
-3613
-3607
-3608
-3608
-3608
-3607
-3606
-3605
-3605
-3605
-3604
-3603
-3603
-3602
-3600
-3599
-3598
-3596
-3595
-3595
-3594
-3593
-3592
-3591
-3590
-3589
-3588
-3587
-3586
-3586
-3585
-3584
-3583
-3582
-3582
-3581
-3580
-3579
-3578
-3577
-3576
-3575
-3574
-3576
-3571
-3570
-3570
-3569
-3568
-3568
-3567
-3567
-3566
-3565
-3565
-3565
-3564
-3561
-3561
-3560
-3559
-3558
-3557
-3556
-3555
-3555
-3553
-3553
-3552
-3551
-3550
-3549
-3549
-3548
-3548
-3547
-3546
-3546
-3545
-3544
-3544
-3543
-3541
-3542
-3560
-3622
-3669
-3675
-3704
-3726
-3730
-3745
-3752
-3849
-4000
-4000
-4000
-4000
-4000
-4000
-4000
-4000
-4000
-4000
-4000
-4000
-4000
-4000
-4000
-4000
-4000
-4000
-4000
-4000
-4000
-4000
-4000
-4000
-4000
-4000
-4000
-4000
-4000
-4000
-4000
-4000
-4000
-4000
-4000
-4000
-4000
-4000
-4000
-4000
-4000
-4000
-4000
-4000
-4000
-4000
-4000
-4000
-4000
-4000
-4000
-4000
-4000
-4000
-4000
-4000
-4000
-4000
-4000
-4000
-4000
-4000
-4000
-4000
-4000
-4000
-4000
-4000
-4000
-4000
-4000
-4000
-4000
-4000
-4000
-4000
-4000
-4000
-4000
-4000
-4000
-4000
-4000
-4000
-4000
-4000
-4000
-4000
-4000
-4000
-4000
-4000
-4000
-4000
-4000
-4000
-4000
-4000
-4000
-4000
-4000
-4000
-4000
-4000
-4000
-4000
-4000
-4000
-3040
-3055
-3960
-3429
-3687
-4000
-4000
-4000
-4000
-4000
-4000
-4000
-4000
-4000
-4000
-4000
-4000
-4000
-4000
-4000
-4000
-4000
-4000
-4000
-4000
-4000
-4000
-4000
-4000
-2772
-1616
-3883
-3976
-3982
-3987
-3986
-3988
-3996
-3996
-3989
-3981
-3977
-3969
-3963
-3953
-3944
-3939
-3932
-3922
-3909
-3904
-3904
-3889
-3901
-3921
-3947
-3967
-3974
-3976
-3992
-4000
-4000
-4000
-4000
-4000
-4000
-3998
-3995
-4000
-4000
-4000
-3999
-3977
-3925
-3784
-3722
-3756
-3766
-3743
-3739
-3735
-3733
-3732
-3764
-3788
-3799
-3779
-3761
-3734
-3751
-3772
-3775
-3775
-3793
-3799
-3814
-3831
-3823
-3799
-3783
-3738
-3728
-3733
-3734
-3740
-3734
-3710
-3699
-3713
-3729
-3724
-3716
-3701
-3699
-3694
-3685
-3680
-3675
-3669
-3664
-3689
-3718
-3708
-3703
-3698
-3694
-3689
-3686
-3681
-3677
-3676
-3675
-3673
-3671
-3669
-3666
-3663
-3661
-3660
-3658
-3655
-3654
-3652
-3649
-3646
-3642
-3640
-3637
-3630
-3622
-3618
-3616
-3615
-3614
-3612
-3609
-3608
-3607
-3610
-3605
-3603
-3604
-3604
-3603
-3603
-3602
-3601
-3601
-3600
-3600
-3599
-3598
-3597
-3596
-3595
-3594
-3593
-3593
-3592
-3591
-3590
-3590
-3589
-3589
-3588
-3587
-3586
-3586
-3586
-3586
-3585
-3584
-3584
-3583
-3582
-3582
-3581
-3581
-3580
-3579
-3578
-3578
-3581
-3576
-3574
-3575
-3575
-3575
-3574
-3574
-3573
-3573
-3573
-3573
-3573
-3572
-3571
-3570
-3569
-3569
-3568
-3568
-3567
-3567
-3567
-3567
-3566
-3565
-3565
-3565
-3565
-3565
-3564
-3564
-3563
-3563
-3562
-3562
-3562
-3562
-3561
-3561
-3561
-3561
-3560
-3559
-3558
-3559
-3562
-3555
-3556
-3557
-3556
-3556
-3556
-3556
-3555
-3555
-3555
-3555
-3555
-3554
-3553
-3553
-3552
-3552
-3551
-3551
-3551
-3551
-3551
-3550
-3550
-3550
-3549
-3549
-3548
-3548
-3548
-3548
-3548
-3548
-3547
-3547
-3547
-3547
-3547
-3547
-3548
-3547
-3546
-3545
-3545
-3547
-3548
-3542
-3544
-3544
-3545
-3545
-3544
-3545
-3544
-3545
-3545
-3545
-3545
-3544
-3543
-3543
-3543
-3542
-3542
-3543
-3542
-3542
-3543
-3543
-3542
-3543
-3543
-3542
-3542
-3542
-3542
-3542
-3542
-3542
-3542
-3542
-3542
-3542
-3543
-3543
-3543
-3542
-3542
-3542
-3543
-3546
-3539
-3541
-3542
-3542
-3543
-3543
-3543
-3543
-3544
-3545
-3545
-3545
-3545
-3545
-3544
-3544
-3544
-3544
-3545
-3545
-3545
-3545
-3545
-3545
-3546
-3546
-3546
-3546
-3546
-3547
-3547
-3547
-3547
-3548
-3548
-3548
-3548
-3548
-3548
-3548
-3551
-3551
-3547
-3549
-3550
-3551
-3551
-3551
-3552
