0	2490	3229	4000
0	2493	3229	4000
0	2490	3229	4000
0	2497	3229	4000
0	2497	3229	4000
0	2495	3229	4000
0	2504	3229	4000
0	2506	3229	4000
0	2483	3229	4000
0	2461	3229	4000
0	2454	3229	4000
0	2506	3229	4000
0	2549	3229	4000
0	2525	3229	4000
0	2507	3229	4000
0	2498	3229	4000
0	2498	3229	4000
0	2500	3229	4000
0	2485	3229	4000
0	2493	3229	4000
0	2488	3229	4000
0	2494	3229	4000
0	2496	3229	4000
0	2488	3229	4000
0	2502	3229	4000
0	2491	3229	4000
0	2495	3229	4000
0	2497	3229	4000
0	2492	3229	4000
0	2496	3229	4000
0	2499	3229	4000
0	2483	3229	4000
0	2494	3229	4000
0	2499	3229	4000
0	2482	3229	4000
0	2492	3229	4000
0	2494	3229	4000
0	2497	3229	4000
0	2493	3229	4000
0	2509	3229	4000
0	2489	3229	4000
0	2498	3229	4000
0	2504	3229	4000
0	2496	3229	4000
0	2504	3229	4000
0	2504	3229	4000
0	2503	3229	4000
0	2506	3229	4000
0	2499	3229	4000
0	2500	3229	4000
0	2497	3229	4000
0	2492	3229	4000
0	2495	3229	4000
0	2493	3229	4000
0	2504	3229	4000
0	2497	3229	4000
0	2493	3229	4000
0	2497	3229	4000
0	2491	3229	4000
0	2492	3229	4000
0	2490	3229	4000
0	2491	3229	4000
0	2495	3229	4000
0	2497	3229	4000
0	2474	3229	4000
0	2485	3229	4000
0	2482	3229	4000
0	2481	3229	4000
0	2482	3229	4000
0	2499	3229	4000
0	2487	3229	4000
0	2496	3229	4000
0	2491	3229	4000
0	2487	3229	4000
0	2489	3229	4000
0	2498	3229	4000
0	2483	3229	4000
0	2486	3229	4000
0	2471	3229	4000
0	2442	3229	4000
0	2492	3229	4000
0	2539	3229	4000
0	2534	3229	4000
0	2499	3229	4000
0	2490	3229	4000
0	2489	3229	4000
0	2489	3229	4000
0	2483	3229	4000
0	2487	3229	4000
0	2486	3229	4000
0	2485	3229	4000
0	2480	3229	4000
0	2488	3229	4000
0	2480	3229	4000
0	2479	3229	4000
0	2479	3229	4000
0	2475	3229	4000
0	2477	3229	4000
0	2463	3229	4000
0	2477	3229	4000
0	2462	3229	4000
0	2462	3229	4000
0	2473	3229	4000
0	2462	3229	4000
0	2475	3229	4000
0	2469	3229	4000
0	2461	3229	4000
0	2474	3229	4000
0	2467	3229	4000
0	2467	3229	4000
0	2462	3229	4000
0	2469	3229	4000
0	2470	3229	4000
0	2458	3229	4000
0	2464	3229	4000
0	2453	3229	4000
0	2454	3229	4000
0	2457	3229	4000
0	2446	3229	4000
0	2445	3229	4000
0	2449	3229	4000
0	2444	3229	4000
0	2451	3229	4000
0	2436	3229	4000
0	2453	3229	4000
0	2438	3229	4000
0	2444	3229	4000
0	2449	3229	4000
0	2449	3229	4000
0	2455	3229	4000
0	2457	3229	4000
0	2457	3229	4000
0	2459	3229	4000
0	2459	3229	4000
0	2461	3229	4000
0	2456	3229	4000
0	2470	3229	4000
0	2470	3229	4000
0	2478	3229	4000
0	2487	3229	4000
0	2479	3229	4000
0	2487	3229	4000
0	2493	3229	4000
0	2488	3229	4000
0	2496	3229	4000
0	2497	3229	4000
0	2495	3229	4000
0	2498	3229	4000
0	2465	3229	4000
0	2459	3229	4000
0	2489	3229	4000
0	2546	3229	4000
0	2533	3229	4000
0	2513	3229	4000
0	2493	3229	4000
0	2489	3229	4000
0	2488	3229	4000
0	2496	3229	4000
0	2485	3229	4000
0	2487	3229	4000
0	2488	3229	4000
0	2491	3229	4000
0	2492	3229	4000
0	2474	3229	4000
0	2486	3229	4000
0	2483	3229	4000
0	2478	3229	4000
0	2483	3229	4000
0	2473	3229	4000
0	2486	3229	4000
0	2470	3229	4000
0	2473	3229	4000
0	2477	3229	4000
0	2471	3229	4000
0	2488	3229	4000
0	2469	3229	4000
0	2478	3229	4000
0	2492	3229	4000
0	2477	3229	4000
0	2489	3229	4000
0	2488	3229	4000
0	2491	3229	4000
0	2493	3229	4000
0	2486	3229	4000
0	2497	3229	4000
0	2491	3229	4000
0	2493	3229	4000
0	2488	3229	4000
0	2486	3229	4000
0	2486	3229	4000
0	2486	3229	4000
0	2487	3229	4000
0	2494	3229	4000
0	2489	3229	4000
0	2493	3229	4000
0	2480	3229	4000
0	2477	3229	4000
0	2486	3229	4000
0	2478	3229	4000
0	2487	3229	4000
0	2486	3229	4000
0	2486	3229	4000
0	2486	3229	4000
0	2488	3229	4000
0	2478	3229	4000
0	2486	3229	4000
0	2483	3229	4000
0	2482	3229	4000
0	2477	3229	4000
0	2487	3229	4000
0	2471	3229	4000
0	2470	3229	4000
0	2465	3229	4000
0	2472	3229	4000
0	2480	3229	4000
0	2475	3229	4000
0	2485	3229	4000
0	2479	3229	4000
0	2474	3229	4000
0	2476	3229	4000
0	2473	3229	4000
0	2473	3229	4000
0	2462	3229	4000
0	2441	3229	4000
0	2451	3229	4000
0	2492	3229	4000
0	2520	3229	4000
0	2500	3229	4000
0	2472	3229	4000
0	2476	3229	4000
0	2472	3229	4000
0	2469	3229	4000
0	2483	3229	4000
0	2464	3229	4000
0	2476	3229	4000
0	2463	3229	4000
0	2476	3229	4000
0	2474	3229	4000
0	2467	3229	4000
0	2474	3229	4000
0	2473	3229	4000
0	2476	3229	4000
0	2474	3229	4000
0	2472	3229	4000
0	2470	3229	4000
0	2472	3229	4000
0	2470	3229	4000
0	2477	3229	4000
0	2471	3229	4000
0	2483	3229	4000
0	2479	3229	4000
0	2481	3229	4000
0	2496	3229	4000
0	2482	3229	4000
0	2491	3229	4000
0	2497	3229	4000
0	2502	3229	4000
0	2499	3229	4000
0	2498	3229	4000
0	2507	3229	4000
0	2498	3229	4000
0	2502	3229	4000
0	2509	3229	4000
0	2497	3229	4000
0	2518	3229	4000
0	2499	3229	4000
0	2503	3229	4000
0	2513	3229	4000
0	2505	3229	4000
0	2506	3229	4000
0	2505	3229	4000
0	2506	3229	4000
0	2512	3229	4000
0	2508	3229	4000
0	2509	3229	4000
0	2512	3229	4000
0	2516	3229	4000
0	2509	3229	4000
0	2512	3229	4000
0	2521	3229	4000
0	2516	3229	4000
0	2522	3229	4000
0	2520	3229	4000
0	2530	3229	4000
0	2520	3229	4000
0	2530	3229	4000
0	2517	3229	4000
0	2526	3229	4000
0	2530	3229	4000
0	2533	3229	4000
0	2531	3229	4000
0	2538	3229	4000
0	2532	3229	4000
0	2535	3229	4000
0	2534	3229	4000
0	2531	3229	4000
0	2543	3229	4000
0	2551	3229	4000
0	2538	3229	4000
0	2551	3229	4000
0	2553	3229	4000
0	2549	3229	4000
0	2548	3229	4000
0	2546	3229	4000
0	2560	3229	4000
0	2532	3229	4000
0	2514	3229	4000
0	2535	3229	4000
0	2582	3229	4000
0	2600	3229	4000
0	2565	3229	4000
0	2544	3229	4000
0	2555	3229	4000
0	2544	3229	4000
0	2553	3229	4000
0	2546	3229	4000
0	2555	3229	4000
0	2545	3229	4000
0	2543	3229	4000
0	2550	3229	4000
0	2534	3229	4000
0	2542	3229	4000
0	2543	3229	4000
0	2535	3229	4000
0	2534	3229	4000
0	2532	3229	4000
0	2535	3229	4000
0	2530	3229	4000
0	2525	3229	4000
0	2533	3229	4000
0	2523	3229	4000
0	2521	3229	4000
0	2529	3229	4000
0	2528	3229	4000
0	2527	3229	4000
0	2522	3229	4000
0	2525	3229	4000
0	2532	3229	4000
0	2517	3229	4000
0	2526	3229	4000
0	2518	3229	4000
0	2529	3229	4000
0	2516	3229	4000
0	2516	3229	4000
0	2512	3229	4000
0	2513	3229	4000
0	2502	3229	4000
0	2508	3229	4000
0	2504	3229	4000
0	2509	3229	4000
0	2496	3229	4000
0	2495	3229	4000
0	2494	3229	4000
0	2488	3229	4000
0	2498	3229	4000
0	2487	3229	4000
0	2498	3229	4000
0	2482	3229	4000
0	2487	3229	4000
0	2486	3229	4000
0	2480	3229	4000
0	2481	3229	4000
0	2481	3229	4000
0	2474	3229	4000
0	2480	3229	4000
0	2471	3229	4000
0	2477	3229	4000
0	2476	3229	4000
0	2470	3229	4000
0	2472	3229	4000
0	2470	3229	4000
0	2469	3229	4000
0	2461	3229	4000
0	2467	3229	4000
0	2468	3229	4000
0	2464	3229	4000
0	2467	3229	4000
0	2460	3229	4000
0	2460	3229	4000
0	2473	3229	4000
0	2457	3229	4000
0	2457	3229	4000
0	2456	3229	4000
0	2457	3229	4000
0	2462	3229	4000
0	2459	3229	4000
0	2461	3229	4000
0	2463	3229	4000
0	2451	3229	4000
0	2455	3229	4000
0	2455	3229	4000
0	2455	3229	4000
0	2460	3229	4000
0	2447	3229	4000
0	2456	3229	4000
0	2464	3229	4000
0	2447	3229	4000
0	2461	3229	4000
0	2459	3229	4000
0	2457	3229	4000
0	2457	3229	4000
0	2456	3229	4000
0	2468	3229	4000
0	2452	3229	4000
0	2446	3229	4000
0	2410	3229	4000
0	2453	3229	4000
0	2518	3229	4000
0	2490	3229	4000
0	2475	3229	4000
0	2460	3229	4000
0	2465	3229	4000
0	2463	3229	4000
0	2457	3229	4000
0	2472	3229	4000
0	2449	3229	4000
0	2461	3229	4000
0	2467	3229	4000
0	2457	3229	4000
0	2471	3229	4000
0	2459	3229	4000
0	2460	3229	4000
0	2468	3229	4000
0	2462	3229	4000
0	2459	3229	4000
0	2459	3229	4000
0	2467	3229	4000
0	2451	3229	4000
0	2460	3229	4000
0	2462	3229	4000
0	2461	3229	4000
0	2468	3229	4000
0	2476	3229	4000
0	2468	3229	4000
0	2483	3229	4000
0	2467	3229	4000
0	2473	3229	4000
0	2481	3229	4000
0	2475	3229	4000
0	2475	3229	4000
0	2475	3229	4000
0	2482	3229	4000
0	2485	3229	4000
0	2471	3229	4000
0	2475	3229	4000
0	2470	3229	4000
0	2475	3229	4000
0	2472	3229	4000
0	2469	3229	4000
0	2482	3229	4000
0	2474	3229	4000
0	2481	3229	4000
0	2467	3229	4000
0	2474	3229	4000
0	2468	3229	4000
0	2470	3229	4000
0	2476	3229	4000
0	2474	3229	4000
0	2473	3229	4000
0	2481	3229	4000
0	2474	3229	4000
0	2472	3229	4000
0	2464	3229	4000
0	2471	3229	4000
0	2475	3229	4000
0	2462	3229	4000
0	2476	3229	4000
0	2467	3229	4000
0	2473	3229	4000
0	2433	3229	4000
0	2367	3229	4000
0	2337	3229	4000
0	2333	3229	4000
0	2330	3229	4000
0	2336	3229	4000
0	2330	3229	4000
0	2324	3229	4000
0	2338	3229	4000
0	2315	3229	4000
0	2328	3229	4000
0	2320	3229	4000
0	2324	3229	4000
0	2321	3229	4000
0	2320	3229	4000
0	2328	3229	4000
0	2318	3229	4000
0	2311	3229	4000
0	2309	3229	4000
0	2306	3229	4000
0	2318	3229	4000
0	2303	3229	4000
0	2305	3229	4000
0	2311	3229	4000
0	2308	3229	4000
0	2330	3229	4000
0	2302	3229	4000
0	2306	3229	4000
0	2310	3229	4000
0	2306	3229	4000
0	2314	3229	4000
0	2296	3229	4000
0	2284	3229	4000
0	2261	3229	4000
0	2311	3229	4000
0	2351	3229	4000
0	2333	3229	4000
0	2321	3229	4000
0	2304	3229	4000
0	2314	3229	4000
0	2296	3229	4000
0	2297	3229	4000
0	2300	3229	4000
0	2296	3229	4000
0	2299	3229	4000
0	2297	3229	4000
0	2291	3229	4000
0	2297	3229	4000
0	2299	3229	4000
0	2283	3229	4000
0	2286	3229	4000
0	2292	3229	4000
0	2290	3229	4000
0	2285	3229	4000
0	2292	3229	4000
0	2292	3229	4000
0	2283	3229	4000
0	2288	3229	4000
0	2302	3229	4000
0	2286	3229	4000
0	2300	3229	4000
0	2294	3229	4000
0	2298	3229	4000
0	2296	3229	4000
0	2299	3229	4000
0	2315	3229	4000
0	2299	3229	4000
0	2312	3229	4000
0	2315	3229	4000
0	2302	3229	4000
0	2308	3229	4000
0	2305	3229	4000
0	2301	3229	4000
0	2309	3229	4000
0	2299	3229	4000
0	2306	3229	4000
0	2308	3229	4000
0	2313	3229	4000
0	2305	3229	4000
0	2297	3229	4000
0	2317	3229	4000
0	2303	3229	4000
0	2315	3229	4000
0	2303	3229	4000
0	2310	3229	4000
0	2308	3229	4000
0	2303	3229	4000
0	2312	3229	4000
0	2314	3229	4000
0	2317	3229	4000
0	2313	3229	4000
0	2308	3229	4000
0	2310	3229	4000
0	2313	3229	4000
0	2308	3229	4000
0	2318	3229	4000
0	2311	3229	4000
0	2319	3229	4000
0	2315	3229	4000
0	2313	3229	4000
0	2316	3229	4000
0	2311	3229	4000
0	2321	3229	4000
0	2315	3229	4000
0	2321	3229	4000
0	2319	3229	4000
0	2308	3229	4000
0	2309	3229	4000
0	2314	3229	4000
0	2312	3229	4000
0	2318	3229	4000
0	2312	3229	4000
0	2311	3229	4000
0	2315	3229	4000
0	2301	3229	4000
0	2306	3229	4000
0	2295	3229	4000
0	2304	3229	4000
0	2317	3229	4000
0	2315	3229	4000
0	2321	3229	4000
0	2308	3229	4000
0	2312	3229	4000
0	2314	3229	4000
0	2306	3229	4000
0	2309	3229	4000
0	2302	3229	4000
0	2276	3229	4000
0	2278	3229	4000
0	2329	3229	4000
0	2366	3229	4000
0	2322	3229	4000
0	2303	3229	4000
0	2310	3229	4000
0	2305	3229	4000
0	2300	3229	4000
0	2304	3229	4000
0	2302	3229	4000
0	2303	3229	4000
0	2296	3229	4000
0	2299	3229	4000
0	2300	3229	4000
0	2300	3229	4000
0	2297	3229	4000
0	2287	3229	4000
0	2290	3229	4000
0	2284	3229	4000
0	2285	3229	4000
0	2290	3229	4000
0	2279	3229	4000
0	2286	3229	4000
0	2283	3229	4000
0	2291	3229	4000
0	2291	3229	4000
0	2294	3229	4000
0	2291	3229	4000
0	2290	3229	4000
0	2298	3229	4000
0	2299	3229	4000
0	2304	3229	4000
0	2302	3229	4000
0	2297	3229	4000
0	2302	3229	4000
0	2295	3229	4000
0	2302	3229	4000
0	2308	3229	4000
0	2288	3229	4000
0	2295	3229	4000
0	2286	3229	4000
0	2294	3229	4000
0	2305	3229	4000
0	2286	3229	4000
0	2286	3229	4000
0	2284	3229	4000
0	2301	3229	4000
0	2292	3229	4000
0	2278	3229	4000
0	2286	3229	4000
0	2293	3229	4000
0	2282	3229	4000
0	2292	3229	4000
0	2282	3229	4000
0	2284	3229	4000
0	2284	3229	4000
0	2288	3229	4000
0	2284	3229	4000
0	2285	3229	4000
0	2279	3229	4000
0	2290	3229	4000
0	2285	3229	4000
0	2287	3229	4000
0	2274	3229	4000
0	2277	3229	4000
0	2269	3229	4000
0	2273	3229	4000
0	2281	3229	4000
0	2270	3229	4000
0	2275	3229	4000
0	2272	3229	4000
0	2273	3229	4000
0	2279	3229	4000
0	2268	3229	4000
0	2277	3229	4000
0	2269	3229	4000
0	2263	3229	4000
0	2272	3229	4000
0	2272	3229	4000
0	2270	3229	4000
0	2281	3229	4000
0	2270	3229	4000
0	2285	3229	4000
0	2274	3229	4000
0	2287	3229	4000
0	2288	3229	4000
0	2280	3229	4000
0	2287	3229	4000
0	2272	3229	4000
0	2244	3229	4000
0	2245	3229	4000
0	2284	3229	4000
0	2329	3229	4000
0	2310	3229	4000
0	2295	3229	4000
0	2292	3229	4000
0	2275	3229	4000
0	2281	3229	4000
0	2277	3229	4000
0	2279	3229	4000
0	2275	3229	4000
0	2279	3229	4000
0	2284	3229	4000
0	2266	3229	4000
0	2276	3229	4000
0	2276	3229	4000
0	2267	3229	4000
0	2272	3229	4000
0	2264	3229	4000
0	2268	3229	4000
0	2269	3229	4000
0	2261	3229	4000
0	2268	3229	4000
0	2260	3229	4000
0	2265	3229	4000
0	2266	3229	4000
0	2266	3229	4000
0	2274	3229	4000
0	2267	3229	4000
0	2284	3229	4000
0	2279	3229	4000
0	2279	3229	4000
0	2285	3229	4000
0	2274	3229	4000
0	2290	3229	4000
0	2275	3229	4000
0	2285	3229	4000
0	2281	3229	4000
0	2275	3229	4000
0	2283	3229	4000
0	2280	3229	4000
0	2279	3229	4000
0	2283	3229	4000
0	2276	3229	4000
0	2279	3229	4000
0	2269	3229	4000
0	2273	3229	4000
0	2270	3229	4000
0	2273	3229	4000
0	2275	3229	4000
0	2275	3229	4000
0	2269	3229	4000
0	2284	3229	4000
0	2272	3229	4000
0	2274	3229	4000
0	2274	3229	4000
0	2279	3229	4000
0	2280	3229	4000
0	2274	3229	4000
0	2292	3229	4000
0	2281	3229	4000
0	2278	3229	4000
0	2287	3229	4000
0	2279	3229	4000
0	2277	3229	4000
0	2278	3229	4000
0	2275	3229	4000
0	2281	3229	4000
0	2272	3229	4000
0	2277	3229	4000
0	2276	3229	4000
0	2275	3229	4000
0	2266	3229	4000
0	2257	3229	4000
0	2268	3229	4000
0	2262	3229	4000
0	2269	3229	4000
0	2274	3229	4000
0	2263	3229	4000
0	2267	3229	4000
0	2270	3229	4000
0	2266	3229	4000
0	2263	3229	4000
0	2256	3229	4000
0	2246	3229	4000
0	2213	3229	4000
0	2219	3229	4000
0	2279	3229	4000
0	2294	3229	4000
0	2272	3229	4000
0	2251	3229	4000
0	2234	3229	4000
0	2239	3229	4000
0	2232	3229	4000
0	2227	3229	4000
0	2231	3229	4000
0	2222	3229	4000
0	2217	3229	4000
0	2216	3229	4000
0	2220	3229	4000
0	2216	3229	4000
0	2210	3229	4000
0	2219	3229	4000
0	2210	3229	4000
0	2208	3229	4000
0	2212	3229	4000
0	2208	3229	4000
0	2213	3229	4000
0	2212	3229	4000
0	2213	3229	4000
0	2214	3229	4000
0	2214	3229	4000
0	2216	3229	4000
0	2225	3229	4000
0	2224	3229	4000
0	2222	3229	4000
0	2225	3229	4000
0	2228	3229	4000
0	2223	3229	4000
0	2226	3229	4000
0	2227	3229	4000
0	2219	3229	4000
0	2224	3229	4000
0	2219	3229	4000
0	2212	3229	4000
0	2211	3229	4000
0	2212	3229	4000
0	2210	3229	4000
0	2203	3229	4000
0	2211	3229	4000
0	2220	3229	4000
0	2202	3229	4000
0	2197	3229	4000
0	2194	3229	4000
0	2202	3229	4000
0	2196	3229	4000
0	2196	3229	4000
0	2194	3229	4000
0	2189	3229	4000
0	2199	3229	4000
0	2187	3229	4000
0	2177	3229	4000
0	2180	3229	4000
0	2179	3229	4000
0	2177	3229	4000
0	2176	3229	4000
0	2169	3229	4000
0	2175	3229	4000
0	2167	3229	4000
0	2170	3229	4000
0	2166	3229	4000
0	2159	3229	4000
0	2173	3229	4000
0	2151	3229	4000
0	2157	3229	4000
0	2152	3229	4000
0	2150	3229	4000
0	2162	3229	4000
0	2146	3229	4000
0	2158	3229	4000
0	2149	3229	4000
0	2146	3229	4000
0	2147	3229	4000
0	2142	3229	4000
0	2143	3229	4000
0	2136	3229	4000
0	2139	3229	4000
0	2140	3229	4000
0	2139	3229	4000
0	2142	3229	4000
0	2140	3229	4000
0	2141	3229	4000
0	2146	3229	4000
0	2139	3229	4000
0	2138	3229	4000
0	2145	3229	4000
0	2141	3229	4000
0	2131	3229	4000
0	2094	3229	4000
0	2115	3229	4000
0	2164	3229	4000
0	2179	3229	4000
0	2156	3229	4000
0	2140	3229	4000
0	2137	3229	4000
0	2136	3229	4000
0	2129	3229	4000
0	2138	3229	4000
0	2129	3229	4000
0	2133	3229	4000
0	2129	3229	4000
0	2120	3229	4000
0	2131	3229	4000
0	2128	3229	4000
0	2143	3229	4000
0	2117	3229	4000
0	2124	3229	4000
0	2120	3229	4000
0	2121	3229	4000
0	2124	3229	4000
0	2120	3229	4000
0	2115	3229	4000
0	2125	3229	4000
0	2116	3229	4000
0	2132	3229	4000
0	2135	3229	4000
0	2134	3229	4000
0	2137	3229	4000
0	2125	3229	4000
0	2142	3229	4000
0	2144	3229	4000
0	2127	3229	4000
0	2137	3229	4000
0	2134	3229	4000
0	2135	3229	4000
0	2139	3229	4000
0	2128	3229	4000
0	2134	3229	4000
0	2129	3229	4000
0	2123	3229	4000
0	2126	3229	4000
0	2121	3229	4000
0	2129	3229	4000
0	2118	3229	4000
0	2131	3229	4000
0	2118	3229	4000
0	2110	3229	4000
0	2121	3229	4000
0	2105	3229	4000
0	2115	3229	4000
0	2118	3229	4000
0	2110	3229	4000
0	2118	3229	4000
0	2102	3229	4000
0	2110	3229	4000
0	2110	3229	4000
0	2105	3229	4000
0	2113	3229	4000
0	2103	3229	4000
0	2120	3229	4000
0	2100	3229	4000
0	2100	3229	4000
0	2109	3229	4000
0	2099	3229	4000
0	2101	3229	4000
0	2105	3229	4000
0	2101	3229	4000
0	2103	3229	4000
0	2098	3229	4000
0	2092	3229	4000
0	2103	3229	4000
0	2101	3229	4000
0	2098	3229	4000
0	2098	3229	4000
0	2109	3229	4000
0	2099	3229	4000
0	2091	3229	4000
0	2103	3229	4000
0	2102	3229	4000
0	2092	3229	4000
0	2103	3229	4000
0	2097	3229	4000
0	2106	3229	4000
0	2099	3229	4000
0	2109	3229	4000
0	2087	3229	4000
0	2096	3229	4000
0	2099	3229	4000
0	2096	3229	4000
0	2087	3229	4000
0	2096	3229	4000
0	2100	3229	4000
0	2107	3229	4000
0	2097	3229	4000
0	2103	3229	4000
0	2104	3229	4000
0	2114	3229	4000
0	2103	3229	4000
0	2092	3229	4000
0	2098	3229	4000
0	2074	3229	4000
0	2062	3229	4000
0	2107	3229	4000
0	2147	3229	4000
0	2132	3229	4000
0	2114	3229	4000
0	2098	3229	4000
0	2110	3229	4000
0	2098	3229	4000
0	2107	3229	4000
0	2102	3229	4000
0	2097	3229	4000
0	2106	3229	4000
0	2107	3229	4000
0	2100	3229	4000
0	2090	3229	4000
0	2104	3229	4000
0	2101	3229	4000
0	2093	3229	4000
0	2099	3229	4000
0	2101	3229	4000
0	2100	3229	4000
0	2101	3229	4000
0	2098	3229	4000
0	2103	3229	4000
0	2105	3229	4000
0	2110	3229	4000
0	2107	3229	4000
0	2106	3229	4000
0	2126	3229	4000
0	2122	3229	4000
0	2117	3229	4000
0	2131	3229	4000
0	2128	3229	4000
0	2136	3229	4000
0	2128	3229	4000
0	2134	3229	4000
0	2125	3229	4000
0	2122	3229	4000
0	2133	3229	4000
0	2128	3229	4000
0	2124	3229	4000
0	2136	3229	4000
0	2122	3229	4000
0	2128	3229	4000
0	2127	3229	4000
0	2124	3229	4000
0	2133	3229	4000
0	2126	3229	4000
0	2117	3229	4000
0	2120	3229	4000
0	2122	3229	4000
0	2126	3229	4000
0	2125	3229	4000
0	2120	3229	4000
0	2119	3229	4000
0	2137	3229	4000
0	2121	3229	4000
0	2122	3229	4000
0	2123	3229	4000
0	2124	3229	4000
0	2123	3229	4000
0	2124	3229	4000
0	2129	3229	4000
0	2122	3229	4000
0	2117	3229	4000
0	2120	3229	4000
0	2118	3229	4000
0	2123	3229	4000
0	2121	3229	4000
0	2119	3229	4000
0	2114	3229	4000
0	2115	3229	4000
0	2113	3229	4000
0	2124	3229	4000
0	2107	3229	4000
0	2114	3229	4000
0	2111	3229	4000
0	2107	3229	4000
0	2109	3229	4000
0	2103	3229	4000
0	2105	3229	4000
0	2113	3229	4000
0	2102	3229	4000
0	2103	3229	4000
0	2088	3229	4000
0	2094	3229	4000
0	2092	3229	4000
0	2102	3229	4000
0	2102	3229	4000
0	2113	3229	4000
0	2102	3229	4000
0	2102	3229	4000
0	2108	3229	4000
0	2114	3229	4000
0	2103	3229	4000
0	2118	3229	4000
0	2099	3229	4000
0	2078	3229	4000
0	2084	3229	4000
0	2124	3229	4000
0	2161	3229	4000
0	2145	3229	4000
0	2125	3229	4000
0	2113	3229	4000
0	2124	3229	4000
0	2108	3229	4000
0	2098	3229	4000
0	2093	3229	4000
0	2106	3229	4000
0	2089	3229	4000
0	2082	3229	4000
0	2088	3229	4000
0	2066	3229	4000
0	2068	3229	4000
0	2067	3229	4000
0	2052	3229	4000
0	2057	3229	4000
0	2036	3229	4000
0	2032	3229	4000
0	2018	3229	4000
0	2005	3229	4000
0	2003	3229	4000
0	1998	3229	4000
0	1991	3229	4000
0	2001	3229	4000
0	2010	3229	4000
0	2026	3229	4000
0	2034	3229	4000
0	2058	3229	4000
0	2070	3229	4000
0	2087	3229	4000
0	2120	3229	4000
0	2134	3229	4000
0	2151	3229	4000
0	2182	3229	4000
0	2197	3229	4000
0	2234	3229	4000
0	2244	3229	4000
0	2277	3229	4000
0	2283	3229	4000
0	2293	3229	4000
0	2293	3229	4000
0	2292	3229	4000
0	2305	3229	4000
0	2305	3229	4000
0	2305	3229	4000
0	2308	3229	4000
0	2298	3229	4000
0	2315	3229	4000
0	2302	3229	4000
0	2310	3229	4000
0	2313	3229	4000
0	2302	3229	4000
0	2308	3229	4000
0	2316	3229	4000
0	2305	3229	4000
0	2308	3229	4000
0	2313	3229	4000
0	2304	3229	4000
0	2308	3229	4000
0	2303	3229	4000
0	2302	3229	4000
0	2295	3229	4000
0	2305	3229	4000
0	2301	3229	4000
0	2298	3229	4000
0	2317	3229	4000
0	2306	3229	4000
0	2310	3229	4000
0	2315	3229	4000
0	2312	3229	4000
0	2326	3229	4000
0	2324	3229	4000
0	2321	3229	4000
0	2334	3229	4000
0	2331	3229	4000
0	2345	3229	4000
0	2345	3229	4000
0	2351	3229	4000
0	2353	3229	4000
0	2364	3229	4000
0	2359	3229	4000
0	2366	3229	4000
0	2368	3229	4000
0	2373	3229	4000
0	2377	3229	4000
0	2377	3229	4000
0	2375	3229	4000
0	2382	3229	4000
0	2381	3229	4000
0	2382	3229	4000
0	2382	3229	4000
0	2371	3229	4000
0	2357	3229	4000
0	2337	3229	4000
0	2397	3229	4000
0	2428	3229	4000
0	2402	3229	4000
0	2387	3229	4000
0	2382	3229	4000
0	2374	3229	4000
0	2376	3229	4000
0	2379	3229	4000
0	2383	3229	4000
0	2380	3229	4000
0	2382	3229	4000
0	2375	3229	4000
0	2392	3229	4000
0	2393	3229	4000
0	2382	3229	4000
0	2391	3229	4000
0	2385	3229	4000
0	2383	3229	4000
0	2380	3229	4000
0	2381	3229	4000
0	2386	3229	4000
0	2381	3229	4000
0	2370	3229	4000
0	2384	3229	4000
0	2363	3229	4000
0	2365	3229	4000
0	2386	3229	4000
0	2375	3229	4000
0	2382	3229	4000
0	2385	3229	4000
0	2385	3229	4000
0	2392	3229	4000
0	2387	3229	4000
0	2387	3229	4000
0	2373	3229	4000
0	2388	3229	4000
0	2375	3229	4000
0	2375	3229	4000
0	2379	3229	4000
0	2384	3229	4000
0	2375	3229	4000
0	2381	3229	4000
0	2372	3229	4000
0	2379	3229	4000
0	2366	3229	4000
0	2375	3229	4000
0	2359	3229	4000
0	2356	3229	4000
0	2359	3229	4000
0	2375	3229	4000
0	2343	3229	4000
0	2364	3229	4000
0	2345	3229	4000
0	2340	3229	4000
0	2339	3229	4000
0	2345	3229	4000
0	2341	3229	4000
0	2345	3229	4000
0	2349	3229	4000
0	2332	3229	4000
0	2332	3229	4000
0	2330	3229	4000
0	2327	3229	4000
0	2322	3229	4000
0	2328	3229	4000
0	2315	3229	4000
0	2326	3229	4000
0	2309	3229	4000
0	2314	3229	4000
0	2321	3229	4000
0	2319	3229	4000
0	2313	3229	4000
0	2315	3229	4000
0	2320	3229	4000
0	2322	3229	4000
0	2311	3229	4000
0	2312	3229	4000
0	2318	3229	4000
0	2314	3229	4000
0	2313	3229	4000
0	2318	3229	4000
0	2316	3229	4000
0	2320	3229	4000
0	2331	3229	4000
0	2339	3229	4000
0	2332	3229	4000
0	2346	3229	4000
0	2335	3229	4000
0	2341	3229	4000
0	2347	3229	4000
0	2346	3229	4000
0	2337	3229	4000
0	2312	3229	4000
0	2324	3229	4000
0	2381	3229	4000
0	2410	3229	4000
0	2387	3229	4000
0	2372	3229	4000
0	2379	3229	4000
0	2379	3229	4000
0	2379	3229	4000
0	2384	3229	4000
0	2389	3229	4000
0	2398	3229	4000
0	2396	3229	4000
0	2407	3229	4000
0	2404	3229	4000
0	2408	3229	4000
0	2412	3229	4000
0	2411	3229	4000
0	2415	3229	4000
0	2419	3229	4000
0	2416	3229	4000
0	2419	3229	4000
0	2424	3229	4000
0	2415	3229	4000
0	2424	3229	4000
0	2422	3229	4000
0	2425	3229	4000
0	2430	3229	4000
0	2435	3229	4000
0	2442	3229	4000
0	2451	3229	4000
0	2450	3229	4000
0	2454	3229	4000
0	2451	3229	4000
0	2453	3229	4000
0	2450	3229	4000
0	2450	3229	4000
0	2454	3229	4000
0	2446	3229	4000
0	2454	3229	4000
0	2433	3229	4000
0	2443	3229	4000
0	2442	3229	4000
0	2442	3229	4000
0	2440	3229	4000
0	2437	3229	4000
0	2439	3229	4000
0	2432	3229	4000
0	2443	3229	4000
0	2441	3229	4000
0	2435	3229	4000
0	2441	3229	4000
0	2438	3229	4000
0	2438	3229	4000
0	2435	3229	4000
0	2436	3229	4000
0	2435	3229	4000
0	2424	3229	4000
0	2443	3229	4000
0	2435	3229	4000
0	2412	3229	4000
0	2422	3229	4000
0	2417	3229	4000
0	2418	3229	4000
0	2418	3229	4000
0	2407	3229	4000
0	2408	3229	4000
0	2394	3229	4000
0	2404	3229	4000
0	2399	3229	4000
0	2383	3229	4000
0	2386	3229	4000
0	2384	3229	4000
0	2380	3229	4000
0	2364	3229	4000
0	2363	3229	4000
0	2356	3229	4000
0	2353	3229	4000
0	2364	3229	4000
0	2348	3229	4000
0	2356	3229	4000
0	2349	3229	4000
0	2339	3229	4000
0	2348	3229	4000
0	2332	3229	4000
0	2335	3229	4000
0	2328	3229	4000
0	2302	3229	4000
0	2277	3229	4000
0	2330	3229	4000
0	2369	3229	4000
0	2361	3229	4000
0	2326	3229	4000
0	2326	3229	4000
0	2319	3229	4000
0	2322	3229	4000
0	2331	3229	4000
0	2310	3229	4000
0	2328	3229	4000
0	2326	3229	4000
0	2313	3229	4000
0	2316	3229	4000
0	2334	3229	4000
0	2356	3229	4000
0	2375	3229	4000
0	2381	3229	4000
0	2396	3229	4000
0	2403	3229	4000
0	2402	3229	4000
0	2403	3229	4000
0	2405	3229	4000
0	2418	3229	4000
0	2417	3229	4000
0	2428	3229	4000
0	2419	3229	4000
0	2435	3229	4000
0	2432	3229	4000
0	2438	3229	4000
0	2438	3229	4000
0	2440	3229	4000
0	2443	3229	4000
0	2437	3229	4000
0	2443	3229	4000
0	2443	3229	4000
0	2442	3229	4000
0	2446	3229	4000
0	2444	3229	4000
0	2441	3229	4000
0	2442	3229	4000
0	2440	3229	4000
0	2440	3229	4000
0	2446	3229	4000
0	2440	3229	4000
0	2441	3229	4000
0	2453	3229	4000
0	2439	3229	4000
0	2452	3229	4000
0	2446	3229	4000
0	2439	3229	4000
0	2455	3229	4000
0	2449	3229	4000
0	2468	3229	4000
0	2468	3229	4000
0	2464	3229	4000
0	2468	3229	4000
0	2469	3229	4000
0	2475	3229	4000
0	2473	3229	4000
0	2478	3229	4000
0	2473	3229	4000
0	2476	3229	4000
0	2485	3229	4000
0	2477	3229	4000
0	2479	3229	4000
0	2483	3229	4000
0	2481	3229	4000
0	2483	3229	4000
0	2483	3229	4000
0	2486	3229	4000
0	2474	3229	4000
0	2482	3229	4000
0	2481	3229	4000
0	2478	3229	4000
0	2481	3229	4000
0	2478	3229	4000
0	2474	3229	4000
0	2475	3229	4000
0	2470	3229	4000
0	2477	3229	4000
0	2479	3229	4000
0	2478	3229	4000
0	2482	3229	4000
0	2464	3229	4000
0	2471	3229	4000
0	2468	3229	4000
0	2459	3229	4000
0	2462	3229	4000
0	2425	3229	4000
0	2419	3229	4000
0	2474	3229	4000
0	2494	3229	4000
0	2482	3229	4000
0	2454	3229	4000
0	2455	3229	4000
0	2449	3229	4000
0	2436	3229	4000
0	2446	3229	4000
0	2445	3229	4000
0	2432	3229	4000
0	2439	3229	4000
0	2432	3229	4000
0	2438	3229	4000
0	2423	3229	4000
0	2432	3229	4000
0	2432	3229	4000
0	2422	3229	4000
0	2419	3229	4000
0	2417	3229	4000
0	2404	3229	4000
0	2414	3229	4000
0	2398	3229	4000
0	2408	3229	4000
0	2400	3229	4000
0	2398	3229	4000
0	2405	3229	4000
0	2397	3229	4000
0	2398	3229	4000
0	2404	3229	4000
0	2390	3229	4000
0	2387	3229	4000
0	2373	3229	4000
0	2391	3229	4000
0	2384	3229	4000
0	2377	3229	4000
0	2372	3229	4000
0	2362	3229	4000
0	2359	3229	4000
0	2356	3229	4000
0	2359	3229	4000
0	2351	3229	4000
0	2351	3229	4000
0	2343	3229	4000
0	2331	3229	4000
0	2345	3229	4000
0	2339	3229	4000
0	2328	3229	4000
0	2332	3229	4000
0	2329	3229	4000
0	2324	3229	4000
0	2329	3229	4000
0	2323	3229	4000
0	2329	3229	4000
0	2322	3229	4000
0	2328	3229	4000
0	2334	3229	4000
0	2316	3229	4000
0	2333	3229	4000
0	2323	3229	4000
0	2317	3229	4000
0	2329	3229	4000
0	2329	3229	4000
0	2334	3229	4000
0	2329	3229	4000
0	2332	3229	4000
0	2333	3229	4000
0	2331	3229	4000
0	2334	3229	4000
0	2329	3229	4000
0	2335	3229	4000
0	2334	3229	4000
0	2333	3229	4000
0	2341	3229	4000
0	2336	3229	4000
0	2339	3229	4000
0	2343	3229	4000
0	2346	3229	4000
0	2350	3229	4000
0	2346	3229	4000
0	2353	3229	4000
0	2349	3229	4000
0	2346	3229	4000
0	2359	3229	4000
0	2358	3229	4000
0	2366	3229	4000
0	2370	3229	4000
0	2368	3229	4000
0	2374	3229	4000
0	2365	3229	4000
0	2375	3229	4000
0	2372	3229	4000
0	2379	3229	4000
0	2368	3229	4000
0	2348	3229	4000
0	2334	3229	4000
0	2382	3229	4000
0	2417	3229	4000
0	2423	3229	4000
0	2388	3229	4000
0	2384	3229	4000
0	2393	3229	4000
0	2380	3229	4000
0	2386	3229	4000
0	2383	3229	4000
0	2380	3229	4000
0	2385	3229	4000
0	2381	3229	4000
0	2380	3229	4000
0	2372	3229	4000
0	2381	3229	4000
0	2372	3229	4000
0	2369	3229	4000
0	2369	3229	4000
0	2373	3229	4000
0	2366	3229	4000
0	2358	3229	4000
0	2361	3229	4000
0	2358	3229	4000
0	2361	3229	4000
0	2350	3229	4000
0	2364	3229	4000
0	2354	3229	4000
0	2364	3229	4000
0	2365	3229	4000
0	2366	3229	4000
0	2373	3229	4000
0	2356	3229	4000
0	2363	3229	4000
0	2362	3229	4000
0	2369	3229	4000
0	2366	3229	4000
0	2362	3229	4000
0	2356	3229	4000
0	2366	3229	4000
0	2362	3229	4000
0	2366	3229	4000
0	2356	3229	4000
0	2353	3229	4000
0	2359	3229	4000
0	2355	3229	4000
0	2344	3229	4000
0	2345	3229	4000
0	2250	3229	4000
0	2191	3229	4000
0	2172	3229	4000
0	2168	3229	4000
0	2156	3229	4000
0	2159	3229	4000
0	2160	3229	4000
0	2153	3229	4000
0	2167	3229	4000
0	2145	3229	4000
0	2157	3229	4000
0	2149	3229	4000
0	2140	3229	4000
0	2156	3229	4000
0	2129	3229	4000
0	2137	3229	4000
0	2133	3229	4000
0	2118	3229	4000
0	2136	3229	4000
0	2111	3229	4000
0	2122	3229	4000
0	2110	3229	4000
0	2105	3229	4000
0	2107	3229	4000
0	2109	3229	4000
0	2101	3229	4000
0	2101	3229	4000
0	2090	3229	4000
0	2096	3229	4000
0	2089	3229	4000
0	2086	3229	4000
0	2078	3229	4000
0	2069	3229	4000
0	2076	3229	4000
0	2076	3229	4000
0	2073	3229	4000
0	2063	3229	4000
0	2072	3229	4000
0	2076	3229	4000
0	2071	3229	4000
0	2080	3229	4000
0	2075	3229	4000
0	2079	3229	4000
0	2079	3229	4000
0	2084	3229	4000
0	2079	3229	4000
0	2078	3229	4000
0	2055	3229	4000
0	2036	3229	4000
0	2070	3229	4000
0	2122	3229	4000
0	2122	3229	4000
0	2101	3229	4000
0	2090	3229	4000
0	2090	3229	4000
0	2099	3229	4000
0	2089	3229	4000
0	2097	3229	4000
0	2102	3229	4000
0	2092	3229	4000
0	2103	3229	4000
0	2104	3229	4000
0	2113	3229	4000
0	2115	3229	4000
0	2122	3229	4000
0	2119	3229	4000
0	2115	3229	4000
0	2127	3229	4000
0	2126	3229	4000
0	2126	3229	4000
0	2137	3229	4000
0	2132	3229	4000
0	2143	3229	4000
0	2138	3229	4000
0	2142	3229	4000
0	2156	3229	4000
0	2151	3229	4000
0	2162	3229	4000
0	2159	3229	4000
0	2174	3229	4000
0	2170	3229	4000
0	2169	3229	4000
0	2171	3229	4000
0	2174	3229	4000
0	2178	3229	4000
0	2179	3229	4000
0	2173	3229	4000
0	2180	3229	4000
0	2180	3229	4000
0	2168	3229	4000
0	2172	3229	4000
0	2169	3229	4000
0	2172	3229	4000
0	2164	3229	4000
0	2157	3229	4000
0	2170	3229	4000
0	2164	3229	4000
0	2161	3229	4000
0	2164	3229	4000
0	2157	3229	4000
0	2160	3229	4000
0	2159	3229	4000
0	2157	3229	4000
0	2164	3229	4000
0	2153	3229	4000
0	2168	3229	4000
0	2159	3229	4000
0	2156	3229	4000
0	2170	3229	4000
0	2156	3229	4000
0	2168	3229	4000
0	2160	3229	4000
0	2162	3229	4000
0	2171	3229	4000
0	2161	3229	4000
0	2173	3229	4000
0	2171	3229	4000
0	2153	3229	4000
0	2158	3229	4000
0	2156	3229	4000
0	2157	3229	4000
0	2154	3229	4000
0	2156	3229	4000
0	2154	3229	4000
0	2138	3229	4000
0	2150	3229	4000
0	2142	3229	4000
0	2139	3229	4000
0	2149	3229	4000
0	2123	3229	4000
0	2146	3229	4000
0	2132	3229	4000
0	2129	3229	4000
0	2149	3229	4000
0	2122	3229	4000
0	2123	3229	4000
0	2133	3229	4000
0	2120	3229	4000
0	2113	3229	4000
0	2107	3229	4000
0	2079	3229	4000
0	2057	3229	4000
0	2098	3229	4000
0	2137	3229	4000
0	2132	3229	4000
0	2103	3229	4000
0	2094	3229	4000
0	2097	3229	4000
0	2094	3229	4000
0	2091	3229	4000
0	2110	3229	4000
0	2090	3229	4000
0	2124	3229	4000
0	2097	3229	4000
0	2110	3229	4000
0	2111	3229	4000
0	2108	3229	4000
0	2119	3229	4000
0	2113	3229	4000
0	2116	3229	4000
0	2121	3229	4000
0	2109	3229	4000
0	2120	3229	4000
0	2127	3229	4000
0	2127	3229	4000
0	2135	3229	4000
0	2140	3229	4000
0	2147	3229	4000
0	2150	3229	4000
0	2161	3229	4000
0	2168	3229	4000
0	2166	3229	4000
0	2186	3229	4000
0	2182	3229	4000
0	2182	3229	4000
0	2205	3229	4000
0	2202	3229	4000
0	2214	3229	4000
0	2223	3229	4000
0	2238	3229	4000
0	2256	3229	4000
0	2263	3229	4000
0	2280	3229	4000
0	2297	3229	4000
0	2297	3229	4000
0	2316	3229	4000
0	2317	3229	4000
0	2332	3229	4000
0	2344	3229	4000
0	2348	3229	4000
0	2364	3229	4000
0	2353	3229	4000
0	2377	3229	4000
0	2368	3229	4000
0	2367	3229	4000
0	2370	3229	4000
0	2369	3229	4000
0	2373	3229	4000
0	2370	3229	4000
0	2362	3229	4000
0	2374	3229	4000
0	2357	3229	4000
0	2361	3229	4000
0	2370	3229	4000
0	2349	3229	4000
0	2353	3229	4000
0	2351	3229	4000
0	2353	3229	4000
0	2354	3229	4000
0	2349	3229	4000
0	2346	3229	4000
0	2340	3229	4000
0	2351	3229	4000
0	2343	3229	4000
0	2337	3229	4000
0	2345	3229	4000
0	2333	3229	4000
0	2330	3229	4000
0	2329	3229	4000
0	2327	3229	4000
0	2330	3229	4000
0	2317	3229	4000
0	2327	3229	4000
0	2324	3229	4000
0	2324	3229	4000
0	2329	3229	4000
0	2324	3229	4000
0	2330	3229	4000
0	2332	3229	4000
0	2326	3229	4000
0	2351	3229	4000
0	2345	3229	4000
0	2355	3229	4000
0	2365	3229	4000
0	2367	3229	4000
0	2381	3229	4000
0	2385	3229	4000
0	2387	3229	4000
0	2403	3229	4000
0	2403	3229	4000
0	2381	3229	4000
0	2371	3229	4000
0	2407	3229	4000
0	2455	3229	4000
0	2449	3229	4000
0	2441	3229	4000
0	2435	3229	4000
0	2432	3229	4000
0	2442	3229	4000
0	2439	3229	4000
0	2456	3229	4000
0	2450	3227	4000
0	2455	3224	4000
0	2455	3226	4000
0	2450	3227	4000
0	2452	3228	4000
0	2439	3229	4000
0	2430	3229	4000
0	2426	3229	4000
0	2419	3229	4000
0	2398	3229	4000
0	2380	3229	4000
0	2369	3229	4000
0	2330	3229	4000
0	2304	3229	4000
0	2265	3229	3627
0	2221	3229	3252
0	2174	3229	2222
0	2160	3229	1190
0	2145	3229	745
0	2142	3229	299
0	2151	3229	916
0	2166	3229	1532
0	2200	3229	2429
0	2204	3229	3326
0	2244	3229	3663
0	2259	3229	4000
0	2285	3229	4000
0	2295	3229	4000
0	2306	3229	4000
0	2340	3229	4000
0	2343	3229	4000
0	2355	3229	4000
0	2349	3229	4000
0	2353	3229	4000
0	2356	3229	4000
0	2363	3229	4000
0	2367	3229	4000
0	2377	3229	4000
0	2380	3229	4000
0	2390	3229	4000
0	2389	3229	4000
0	2396	3229	4000
0	2394	3229	4000
0	2392	3229	4000
0	2403	3229	4000
0	2400	3229	4000
0	2401	3229	4000
0	2403	3229	4000
0	2392	3229	4000
0	2393	3229	4000
0	2390	3229	4000
0	2383	3229	4000
0	2384	3229	4000
0	2373	3229	4000
0	2383	3229	4000
0	2363	3229	4000
0	2366	3229	4000
0	2371	3229	4000
0	2365	3229	4000
0	2362	3229	4000
0	2369	3229	4000
0	2374	3229	4000
0	2373	3229	4000
0	2368	3229	4000
0	2386	3229	4000
0	2373	3229	4000
0	2376	3229	4000
0	2379	3229	4000
0	2385	3229	4000
0	2387	3229	4000
0	2375	3229	4000
0	2388	3229	4000
0	2377	3229	4000
0	2388	3229	4000
0	2400	3229	4000
0	2392	3229	4000
0	2383	3229	4000
0	2407	3229	4000
0	2386	3229	4000
0	2392	3229	4000
0	2381	3229	4000
0	2375	3229	4000
0	2347	3229	4000
0	2340	3229	4000
0	2408	3229	4000
0	2423	3229	4000
0	2411	3229	4000
0	2389	3229	4000
0	2377	3229	4000
0	2383	3229	4000
0	2377	3229	4000
0	2384	3229	4000
0	2374	3229	4000
0	2376	3229	4000
0	2389	3229	4000
0	2371	3229	4000
0	2372	3229	4000
0	2363	3229	4000
0	2361	3229	4000
0	2364	3229	4000
0	2350	3229	4000
0	2351	3229	4000
0	2347	3229	4000
0	2335	3229	4000
0	2337	3229	4000
0	2324	3229	4000
0	2326	3229	4000
0	2316	3229	4000
0	2314	3229	4000
0	2311	3229	4000
0	2316	3229	4000
0	2299	3229	4000
0	2308	3229	4000
0	2303	3229	4000
0	2297	3229	4000
0	2279	3229	4000
0	2284	3229	4000
0	2279	3229	4000
0	2274	3229	4000
0	2264	3229	4000
0	2255	3229	4000
0	2253	3229	4000
0	2248	3229	4000
0	2243	3229	4000
0	2239	3229	4000
0	2228	3229	4000
0	2226	3229	4000
0	2209	3229	4000
0	2209	3229	4000
0	2206	3229	4000
0	2199	3229	4000
0	2193	3229	4000
0	2184	3229	4000
0	2187	3229	4000
0	2180	3229	4000
0	2174	3229	4000
0	2176	3229	4000
0	2170	3229	4000
0	2169	3229	4000
0	2159	3229	4000
0	2156	3229	4000
0	2163	3229	4000
0	2162	3229	4000
0	2155	3229	4000
0	2169	3229	4000
0	2160	3229	4000
0	2166	3229	4000
0	2172	3229	4000
0	2172	3229	4000
0	2180	3229	4000
0	2174	3229	4000
0	2187	3229	4000
0	2185	3229	4000
0	2186	3229	4000
0	2194	3229	4000
0	2180	3229	4000
0	2186	3229	4000
0	2191	3229	4000
0	2199	3229	4000
0	2203	3229	4000
0	2202	3229	4000
0	2214	3229	4000
0	2213	3229	4000
0	2205	3229	4000
0	2211	3229	4000
0	2210	3229	4000
0	2220	3229	4000
0	2221	3229	4000
0	2213	3229	4000
0	2208	3229	4000
0	2177	3229	4000
0	2214	3229	4000
0	2268	3229	4000
0	2279	3229	4000
0	2252	3229	4000
0	2242	3229	4000
0	2239	3229	4000
0	2257	3229	4000
0	2259	3229	4000
0	2251	3229	4000
0	2256	3229	4000
0	2268	3229	4000
0	2263	3229	4000
0	2261	3229	4000
0	2269	3229	4000
0	2261	3229	4000
0	2270	3229	4000
0	2275	3229	4000
0	2273	3229	4000
0	2275	3229	4000
0	2269	3229	4000
0	2279	3229	4000
0	2278	3229	4000
0	2286	3229	4000
0	2282	3229	4000
0	2288	3229	4000
0	2294	3229	4000
0	2299	3229	4000
0	2301	3229	4000
0	2311	3229	4000
0	2309	3229	4000
0	2320	3229	4000
0	2320	3229	4000
0	2316	3229	4000
0	2328	3229	4000
0	2327	3229	4000
0	2327	3229	4000
0	2328	3229	4000
0	2330	3229	4000
0	2330	3229	4000
0	2323	3229	4000
0	2332	3229	4000
0	2329	3229	4000
0	2336	3229	4000
0	2340	3229	4000
0	2333	3229	4000
0	2336	3229	4000
0	2352	3229	4000
0	2343	3229	4000
0	2349	3229	4000
0	2332	3229	4000
0	2338	3229	4000
0	2344	3229	4000
0	2343	3229	4000
0	2349	3229	4000
0	2335	3229	4000
0	2333	3229	4000
0	2329	3229	4000
0	2324	3229	4000
0	2333	3229	4000
0	2317	3229	4000
0	2317	3229	4000
0	2315	3229	4000
0	2319	3229	4000
0	2313	3229	4000
0	2303	3229	4000
0	2301	3229	4000
0	2290	3229	4000
0	2290	3229	4000
0	2287	3229	4000
0	2262	3229	4000
0	2261	3229	4000
0	2247	3229	4000
0	2234	3229	4000
0	2235	3229	4000
0	2198	3229	4000
0	2186	3229	4000
0	2186	3229	4000
0	2171	3229	4000
0	2162	3229	4000
0	2155	3229	4000
0	2152	3229	4000
0	2140	3229	4000
0	2102	3229	4000
0	2089	3229	4000
0	2140	3229	4000
0	2175	3229	4000
0	2145	3229	4000
0	2108	3229	4000
0	2108	3229	4000
0	2096	3229	4000
0	2096	3229	4000
0	2088	3229	4000
0	2079	3229	4000
0	2079	3229	4000
0	2066	3229	4000
0	2075	3229	4000
0	2063	3229	4000
0	2062	3229	4000
0	2065	3229	4000
0	2049	3229	4000
0	2060	3229	4000
0	2050	3229	4000
0	2045	3229	4000
0	2053	3229	4000
0	2035	3229	4000
0	2053	3229	4000
0	2036	3229	4000
0	2038	3229	4000
0	2053	3229	4000
0	2034	3229	4000
0	2050	3229	4000
0	2044	3229	4000
0	2047	3229	4000
0	2057	3229	4000
0	2047	3229	4000
0	2061	3229	4000
0	2055	3229	4000
0	2037	3229	4000
0	2064	3229	4000
0	2050	3229	4000
0	2066	3229	4000
0	2053	3229	4000
0	2049	3229	4000
0	2065	3229	4000
0	2048	3229	4000
0	2053	3229	4000
0	2049	3229	4000
0	2049	3229	4000
0	2052	3229	4000
0	2044	3229	4000
0	2039	3229	4000
0	2031	3229	4000
0	2033	3229	4000
0	2040	3229	4000
0	2020	3229	4000
0	2037	3229	4000
0	2027	3229	4000
0	2012	3229	4000
0	2030	3229	4000
0	2013	3229	4000
0	2018	3229	4000
0	2016	3229	4000
0	2014	3229	4000
0	2019	3229	4000
0	2005	3229	4000
0	2007	3229	4000
0	2010	3229	4000
0	2007	3229	4000
0	2010	3229	4000
0	1994	3229	4000
0	1991	3229	4000
0	1984	3229	4000
0	1986	3229	4000
0	1982	3229	4000
0	1980	3229	4000
0	1983	3229	4000
0	1974	3229	4000
0	1979	3229	4000
0	1975	3229	4000
0	1972	3229	4000
0	1976	3229	4000
0	1954	3229	4000
0	1965	3229	4000
0	1935	3229	4000
0	1908	3229	4000
0	1965	3229	4000
0	1997	3229	4000
0	1988	3229	4000
0	1966	3229	4000
0	1950	3229	4000
0	1958	3229	4000
0	1949	3229	4000
0	1944	3229	4000
0	1960	3229	4000
0	1934	3229	4000
0	1948	3229	4000
0	1944	3229	4000
0	1946	3229	4000
0	1946	3229	4000
0	1939	3229	4000
0	1940	3229	4000
0	1932	3229	4000
0	1940	3229	4000
0	1920	3229	4000
0	1923	3229	4000
0	1931	3229	4000
0	1921	3229	4000
0	1928	3229	4000
0	1923	3229	4000
0	1911	3229	4000
0	1927	3229	4000
0	1924	3229	4000
0	1924	3229	4000
0	1926	3229	4000
0	1921	3229	4000
0	1934	3229	4000
0	1917	3229	4000
0	1939	3229	4000
0	1934	3229	4000
0	1930	3229	4000
0	1942	3229	4000
0	1937	3229	4000
0	1942	3229	4000
0	1951	3229	4000
0	1943	3229	4000
0	1964	3229	4000
0	1957	3229	4000
0	1957	3229	4000
0	1967	3229	4000
0	1961	3229	4000
0	1976	3229	4000
0	1969	3229	4000
0	1974	3229	4000
0	1976	3229	4000
0	1973	3229	4000
0	1978	3229	4000
0	1976	3229	4000
0	1979	3229	4000
0	1992	3229	4000
0	1983	3229	4000
0	1986	3229	4000
0	1992	3229	4000
0	1994	3229	4000
0	1996	3229	4000
0	2002	3229	4000
0	2010	3229	4000
0	2008	3229	4000
0	2010	3229	4000
0	2025	3229	4000
0	2023	3229	4000
0	2032	3229	4000
0	2028	3229	4000
0	1998	3229	4000
0	2008	3229	4000
0	2043	3229	4000
0	2101	3229	4000
0	2081	3229	4000
0	2063	3229	4000
0	2058	3229	4000
0	2058	3229	4000
0	2079	3229	4000
0	2065	3229	4000
0	2072	3229	4000
0	2071	3229	4000
0	2074	3229	4000
0	2086	3229	4000
0	2086	3229	4000
0	2082	3229	4000
0	2087	3229	4000
0	2086	3229	4000
0	2088	3229	4000
0	2084	3229	4000
0	2079	3229	4000
0	2096	3229	4000
0	2078	3229	4000
0	2087	3229	4000
0	2080	3229	4000
0	2082	3229	4000
0	2084	3229	4000
0	2087	3229	4000
0	2094	3229	4000
0	2092	3229	4000
0	2090	3229	4000
0	2104	3229	4000
0	2094	3229	4000
0	2110	3229	4000
0	2100	3229	4000
0	2102	3229	4000
0	2106	3229	4000
0	2094	3229	4000
0	2107	3229	4000
0	2093	3229	4000
0	2084	3229	4000
0	2100	3229	4000
0	2087	3229	4000
0	2103	3229	4000
0	2081	3229	4000
0	2084	3229	4000
0	2092	3229	4000
0	2087	3229	4000
0	2101	3229	4000
0	2102	3229	4000
0	2097	3229	4000
0	2116	3229	4000
0	2104	3229	4000
0	2117	3229	4000
0	2122	3229	4000
0	2118	3229	4000
0	2137	3229	4000
0	2120	3229	4000
0	2136	3229	4000
0	2124	3229	4000
0	2129	3229	4000
0	2139	3229	4000
0	2127	3229	4000
0	2126	3229	4000
0	2136	3229	4000
0	2118	3229	4000
0	2122	3229	4000
0	2106	3229	4000
0	2111	3229	4000
0	2108	3229	4000
0	2096	3229	4000
0	2083	3229	4000
0	2048	3229	4000
0	2064	3229	4000
0	2106	3229	4000
0	2111	3229	4000
0	2085	3229	4000
0	2062	3229	4000
0	2057	3229	4000
0	2050	3229	4000
0	2035	3229	4000
0	2037	3229	4000
0	2018	3229	4000
0	2028	3229	4000
0	2011	3229	4000
0	2009	3229	4000
0	2009	3229	4000
0	1990	3229	4000
0	1999	3229	4000
0	1982	3229	4000
0	1984	3229	4000
0	1990	3229	4000
0	1966	3229	4000
0	1980	3229	4000
0	1967	3229	4000
0	1965	3229	4000
0	1968	3229	4000
0	1967	3229	4000
0	1972	3229	4000
0	1961	3229	4000
0	1978	3229	4000
0	1978	3229	4000
0	1980	3229	4000
0	1992	3229	4000
0	2004	3229	4000
0	1997	3229	4000
0	2004	3229	4000
0	2008	3229	4000
0	2004	3229	4000
0	2012	3229	4000
0	2008	3229	4000
0	2019	3229	4000
0	2022	3229	4000
0	2029	3229	4000
0	2028	3229	4000
0	2030	3229	4000
0	2036	3229	4000
0	2036	3229	4000
0	2047	3229	4000
0	2041	3229	4000
0	2051	3229	4000
0	2058	3229	4000
0	2050	3229	4000
0	2068	3229	4000
0	2066	3229	4000
0	2063	3229	4000
0	2072	3229	4000
0	2075	3229	4000
0	2086	3229	4000
0	2086	3229	4000
0	2088	3229	4000
0	2092	3229	4000
0	2093	3229	4000
0	2103	3229	4000
0	2097	3229	4000
0	2102	3229	4000
0	2111	3229	4000
0	2108	3229	4000
0	2110	3229	4000
0	2116	3229	4000
0	2119	3229	4000
0	2125	3229	4000
0	2121	3229	4000
0	2124	3229	4000
0	2122	3229	4000
0	2124	3229	4000
0	2143	3229	4000
0	2138	3229	4000
0	2149	3229	4000
0	2149	3229	4000
0	2153	3229	4000
0	2161	3229	4000
0	2163	3229	4000
0	2178	3229	4000
0	2159	3229	4000
0	2158	3229	4000
0	2127	3229	4000
0	2151	3229	4000
0	2203	3229	4000
0	2203	3229	4000
0	2189	3229	4000
0	2176	3229	4000
0	2168	3229	4000
0	2186	3229	4000
0	2174	3229	4000
0	2179	3229	4000
0	2176	3229	4000
0	2171	3229	4000
0	2171	3229	4000
0	2167	3229	4000
0	2180	3229	4000
0	2174	3229	4000
0	2168	3229	4000
0	2173	3229	4000
0	2172	3229	4000
0	2160	3229	4000
0	2158	3229	4000
0	2158	3229	4000
0	2159	3229	4000
0	2160	3229	4000
0	2162	3229	4000
0	2169	3229	4000
0	2155	3229	4000
0	2167	3229	4000
0	2163	3229	4000
0	2157	3229	4000
0	2170	3229	4000
0	2166	3229	4000
0	2163	3229	4000
0	2167	3229	4000
0	2163	3229	4000
0	2161	3229	4000
0	2151	3229	4000
0	2163	3229	4000
0	2152	3229	4000
0	2147	3229	4000
0	2153	3229	4000
0	2144	3229	4000
0	2155	3229	4000
0	2141	3229	4000
0	2140	3229	4000
0	2144	3229	4000
0	2141	3229	4000
0	2149	3229	4000
0	2135	3229	4000
0	2142	3229	4000
0	2140	3229	4000
0	2133	3229	4000
0	2149	3229	4000
0	2140	3229	4000
0	2145	3229	4000
0	2147	3229	4000
0	2134	3229	4000
0	2147	3229	4000
0	2149	3229	4000
0	2152	3229	4000
0	2143	3229	4000
0	2141	3229	4000
0	2158	3229	4000
0	2143	3229	4000
0	2149	3229	4000
0	2154	3229	4000
0	2147	3229	4000
0	2158	3229	4000
0	2144	3229	4000
0	2147	3229	4000
0	2152	3229	4000
0	2145	3229	4000
0	2152	3229	4000
0	2154	3229	4000
0	2161	3229	4000
0	2158	3229	4000
0	2155	3229	4000
0	2155	3229	4000
0	2154	3229	4000
0	2162	3229	4000
0	2168	3229	4000
0	2138	3229	4000
0	2128	3229	4000
0	2122	3229	4000
0	2177	3229	4000
0	2205	3229	4000
0	2184	3229	4000
0	2172	3229	4000
0	2155	3229	4000
0	2158	3229	4000
0	2162	3229	4000
0	2155	3229	4000
0	2153	3229	4000
0	2152	3229	4000
0	2153	3229	4000
0	2155	3229	4000
0	2150	3229	4000
0	2154	3229	4000
0	2147	3229	4000
0	2154	3229	4000
0	2153	3229	4000
0	2145	3229	4000
0	2160	3229	4000
0	2143	3229	4000
0	2147	3229	4000
0	2154	3229	4000
0	2152	3229	4000
0	2146	3229	4000
0	2152	3229	4000
0	2162	3229	4000
0	2163	3229	4000
0	2158	3229	4000
0	2174	3229	4000
0	2166	3229	4000
0	2176	3229	4000
0	2174	3229	4000
0	2170	3229	4000
0	2178	3229	4000
0	2174	3229	4000
0	2177	3229	4000
0	2182	3229	4000
0	2163	3229	4000
0	2180	3229	4000
0	2179	3229	4000
0	2179	3229	4000
0	2182	3229	4000
0	2171	3229	4000
0	2177	3229	4000
0	2170	3229	4000
0	2174	3229	4000
0	2178	3229	4000
0	2164	3229	4000
0	2181	3229	4000
0	2174	3229	4000
0	2170	3229	4000
0	2169	3229	4000
0	2164	3229	4000
0	2179	3229	4000
0	2167	3229	4000
0	2170	3229	4000
0	2169	3229	4000
0	2162	3229	4000
0	2173	3229	4000
0	2173	3229	4000
0	2164	3229	4000
0	2166	3229	4000
0	2160	3229	4000
0	2166	3229	4000
0	2154	3229	4000
0	2168	3229	4000
0	2171	3229	4000
0	2164	3229	4000
0	2168	3229	4000
0	2153	3229	4000
0	2161	3229	4000
0	2171	3229	4000
0	2161	3229	4000
0	2171	3229	4000
0	2153	3229	4000
0	2153	3229	4000
0	2168	3229	4000
0	2164	3229	4000
0	2162	3229	4000
0	2153	3229	4000
0	2155	3229	4000
0	2150	3229	4000
0	2151	3229	4000
0	2158	3229	4000
0	2150	3229	4000
0	2154	3229	4000
0	2166	3229	4000
0	2157	3229	4000
0	2162	3229	4000
0	2157	3229	4000
0	2158	3229	4000
0	2154	3229	4000
0	2144	3229	4000
0	2132	3229	4000
0	2114	3229	4000
0	2158	3229	4000
0	2193	3229	4000
0	2175	3229	4000
0	2166	3229	4000
0	2144	3229	4000
0	2150	3229	4000
0	2142	3229	4000
0	2141	3229	4000
0	2151	3229	4000
0	2145	3229	4000
0	2139	3229	4000
0	2146	3229	4000
0	2137	3229	4000
0	2140	3229	4000
0	2139	3229	4000
0	2136	3229	4000
0	2138	3229	4000
0	2131	3229	4000
0	2138	3229	4000
0	2133	3229	4000
0	2128	3229	4000
0	2129	3229	4000
0	2121	3229	4000
0	2137	3229	4000
0	2135	3229	4000
0	2138	3229	4000
0	2138	3229	4000
0	2124	3229	4000
0	2145	3229	4000
0	2132	3229	4000
0	2141	3229	4000
0	2146	3229	4000
0	2140	3229	4000
0	2142	3229	4000
0	2135	3229	4000
0	2144	3229	4000
0	2145	3229	4000
0	2134	3229	4000
0	2141	3229	4000
0	2138	3229	4000
0	2143	3229	4000
0	2142	3229	4000
0	2131	3229	4000
0	2142	3229	4000
0	2139	3229	4000
0	2136	3229	4000
0	2138	3229	4000
0	2134	3229	4000
0	2141	3229	4000
0	2131	3229	4000
0	2137	3229	4000
0	2141	3229	4000
0	2136	3229	4000
0	2142	3229	4000
0	2143	3229	4000
0	2134	3229	4000
0	2142	3229	4000
0	2135	3229	4000
0	2143	3229	4000
0	2139	3229	4000
0	2146	3229	4000
0	2150	3229	4000
0	2147	3229	4000
0	2167	3229	4000
0	2156	3229	4000
0	2155	3229	4000
0	2156	3229	4000
0	2149	3229	4000
0	2158	3229	4000
0	2142	3229	4000
0	2136	3229	4000
0	2138	3229	4000
0	2128	3229	4000
0	2139	3229	4000
0	2120	3229	4000
0	2113	3229	4000
0	2119	3229	4000
0	2107	3229	4000
0	2109	3229	4000
0	2099	3229	4000
0	2088	3229	4000
0	2091	3229	4000
0	2083	3229	4000
0	2079	3229	4000
0	2069	3229	4000
0	2079	3229	4000
0	2072	3229	4000
0	2066	3229	4000
0	2091	3229	4000
0	2084	3229	4000
0	2106	3229	4000
0	2124	3229	4000
0	2120	3229	4000
0	2141	3229	4000
0	2145	3229	4000
0	2153	3229	4000
0	2164	3229	4000
0	2156	3229	4000
0	2159	3229	4000
0	2129	3229	4000
0	2157	3229	4000
0	2220	3229	4000
0	2230	3229	4000
0	2208	3229	4000
0	2193	3229	4000
0	2202	3229	4000
0	2191	3229	4000
0	2195	3229	4000
0	2203	3229	4000
0	2191	3229	4000
0	2195	3229	4000
0	2200	3229	4000
0	2187	3229	4000
0	2204	3229	4000
0	2184	3229	4000
0	2187	3229	4000
0	2188	3229	4000
0	2182	3229	4000
0	2186	3229	4000
0	2182	3229	4000
0	2185	3229	4000
0	2174	3229	4000
0	2168	3229	4000
0	2179	3229	4000
0	2178	3229	4000
0	2177	3229	4000
0	2180	3229	4000
0	2174	3229	4000
0	2186	3229	4000
0	2177	3229	4000
0	2190	3229	4000
0	2187	3229	4000
0	2184	3229	4000
0	2191	3229	4000
0	2177	3229	4000
0	2192	3229	4000
0	2187	3229	4000
0	2179	3229	4000
0	2190	3229	4000
0	2178	3229	4000
0	2179	3229	4000
0	2180	3229	4000
0	2173	3229	4000
0	2185	3229	4000
0	2173	3229	4000
0	2177	3229	4000
0	2188	3229	4000
0	2192	3229	4000
0	2194	3229	4000
0	2194	3229	4000
0	2192	3229	4000
0	2192	3229	4000
0	2187	3229	4000
0	2188	3229	4000
0	2188	3229	4000
0	2185	3229	4000
0	2186	3229	4000
0	2176	3229	4000
0	2191	3229	4000
0	2175	3229	4000
0	2177	3229	4000
0	2193	3229	4000
0	2159	3229	4000
0	2177	3229	4000
0	2168	3229	4000
0	2173	3229	4000
0	2169	3229	4000
0	2163	3229	4000
0	2178	3229	4000
0	2155	3229	4000
0	2170	3229	4000
0	2163	3229	4000
0	2155	3229	4000
0	2162	3229	4000
0	2162	3229	4000
0	2152	3229	4000
0	2153	3229	4000
0	2149	3229	4000
0	2143	3229	4000
0	2140	3229	4000
0	2133	3229	4000
0	2136	3229	4000
0	2137	3229	4000
0	2136	3229	4000
0	2134	3229	4000
0	2132	3229	4000
0	2140	3229	4000
0	2132	3229	4000
0	2129	3229	4000
0	2132	3229	4000
0	2129	3229	4000
0	2120	3229	4000
0	2090	3229	4000
0	2087	3229	4000
0	2123	3229	4000
0	2160	3229	4000
0	2159	3229	4000
0	2126	3229	4000
0	2128	3229	4000
0	2111	3229	4000
0	2108	3229	4000
0	2119	3229	4000
0	2108	3229	4000
0	2113	3229	4000
0	2117	3229	4000
0	2107	3229	4000
0	2115	3229	4000
0	2101	3229	4000
0	2111	3229	4000
0	2115	3229	4000
0	2115	3229	4000
0	2126	3229	4000
0	2122	3229	4000
0	2136	3229	4000
0	2140	3229	4000
0	2144	3229	4000
0	2151	3229	4000
0	2156	3229	4000
0	2179	3229	4000
0	2189	3229	4000
0	2189	3229	4000
0	2208	3229	4000
0	2193	3229	4000
0	2214	3229	4000
0	2225	3229	4000
0	2217	3229	4000
0	2220	3229	4000
0	2223	3229	4000
0	2217	3229	4000
0	2217	3229	4000
0	2212	3229	4000
0	2227	3229	4000
0	2219	3229	4000
0	2217	3229	4000
0	2223	3229	4000
0	2219	3229	4000
0	2219	3229	4000
0	2212	3229	4000
0	2216	3229	4000
0	2208	3229	4000
0	2210	3229	4000
0	2209	3229	4000
0	2209	3229	4000
0	2220	3229	4000
0	2224	3229	4000
0	2219	3229	4000
0	2239	3208	4000
0	2225	3186	4000
0	2229	3184	4000
0	2222	3180	4000
0	2219	3205	4000
0	2199	3229	4000
0	2182	3229	4000
0	2139	3229	4000
0	2089	3229	4000
-1	2052	3229	4000
-73	1991	3229	3074
-147	1930	3229	2147
-233	1899	3229	1300
-321	1852	3229	451
-169	1827	3229	355
-18	1808	3229	257
-9	1788	3229	939
0	1800	3229	1620
0	1800	3229	2359
0	1839	3229	3097
0	1824	3229	3549
0	1880	3229	4000
0	1867	3229	4000
0	1947	3229	4000
0	1902	3229	3906
0	1931	3229	3811
0	1962	3229	3900
0	1979	3229	3988
0	1982	3229	3994
0	2001	3229	4000
0	2031	3229	4000
0	2050	3229	4000
0	2070	3229	4000
0	2067	3229	4000
0	2086	3229	4000
0	2114	3229	4000
0	2109	3229	4000
0	2098	3229	4000
0	2076	3229	4000
0	2093	3229	4000
0	2160	3229	4000
0	2162	3229	4000
0	2144	3229	4000
0	2122	3229	4000
0	2118	3229	4000
0	2136	3229	4000
0	2108	3229	4000
0	2111	3229	4000
0	2107	3229	4000
0	2098	3229	4000
0	2104	3229	4000
0	2097	3229	4000
0	2096	3229	4000
0	2100	3229	4000
0	2087	3229	4000
0	2101	3229	4000
0	2086	3229	4000
0	2097	3229	4000
0	2091	3229	4000
0	2089	3229	4000
0	2087	3229	4000
0	2083	3229	4000
0	2091	3229	4000
0	2082	3229	4000
0	2084	3229	4000
0	2099	3229	4000
0	2080	3229	4000
0	2085	3229	4000
0	2089	3229	4000
0	2084	3229	4000
0	2092	3229	4000
0	2075	3229	4000
0	2080	3229	4000
0	2084	3229	4000
0	2070	3229	4000
0	2068	3229	4000
0	2069	3229	4000
0	2068	3229	4000
0	2058	3229	4000
0	2052	3229	4000
0	2048	3229	4000
0	2043	3229	4000
0	2048	3229	4000
0	2035	3229	4000
0	2037	3229	4000
0	2028	3229	4000
0	2011	3229	4000
0	2011	3229	4000
0	2007	3229	4000
0	1993	3229	4000
0	1985	3229	4000
0	1976	3229	4000
0	1973	3229	4000
0	1968	3229	4000
0	1956	3229	4000
0	1944	3229	4000
0	1916	3229	4000
0	1919	3229	4000
0	1923	3229	4000
0	1902	3229	4000
0	1886	3229	4000
0	1871	3229	4000
0	1859	3229	4000
0	1851	3229	4000
0	1843	3229	4000
0	1843	3229	4000
0	1818	3229	4000
0	1824	3229	4000
0	1805	3229	4000
0	1796	3229	4000
0	1793	3229	4000
0	1787	3229	4000
0	1783	3229	4000
0	1764	3229	4000
0	1764	3229	4000
0	1763	3229	4000
0	1750	3229	4000
0	1751	3229	4000
0	1720	3229	4000
0	1695	3229	4000
0	1714	3229	4000
0	1768	3229	4000
0	1785	3229	4000
0	1744	3229	4000
0	1735	3229	4000
0	1725	3229	4000
0	1731	3229	4000
0	1726	3229	4000
0	1716	3229	4000
0	1726	3229	4000
0	1730	3229	4000
0	1717	3229	4000
0	1726	3229	4000
0	1717	3229	4000
0	1714	3229	4000
0	1711	3229	4000
0	1712	3229	4000
0	1708	3229	4000
0	1708	3229	4000
0	1705	3229	4000
0	1697	3229	4000
0	1681	3229	4000
0	1694	3229	4000
0	1689	3229	4000
0	1690	3229	4000
0	1690	3229	4000
0	1692	3229	4000
0	1689	3229	4000
0	1695	3229	4000
0	1713	3229	4000
0	1704	3229	4000
0	1703	3229	4000
0	1708	3229	4000
0	1702	3229	4000
0	1704	3229	4000
0	1703	3229	4000
0	1702	3229	4000
0	1707	3229	4000
0	1689	3229	4000
0	1686	3229	4000
0	1686	3229	4000
0	1693	3229	4000
0	1692	3229	4000
0	1682	3229	4000
0	1681	3229	4000
0	1678	3229	4000
0	1672	3229	4000
0	1669	3229	4000
0	1667	3229	4000
0	1674	3229	4000
0	1658	3229	4000
0	1655	3229	4000
0	1657	3229	4000
0	1654	3229	4000
0	1655	3229	4000
0	1654	3229	4000
0	1649	3229	4000
0	1645	3229	4000
0	1637	3229	4000
0	1639	3229	4000
0	1641	3229	4000
0	1634	3229	4000
0	1637	3229	4000
0	1621	3229	4000
0	1625	3229	4000
0	1619	3229	4000
0	1608	3229	4000
0	1618	3229	4000
0	1609	3229	4000
0	1604	3229	4000
0	1609	3229	4000
0	1603	3229	4000
0	1603	3229	4000
0	1588	3229	4000
0	1593	3229	4000
0	1590	3229	4000
0	1571	3229	4000
0	1580	3229	4000
0	1539	3229	4000
0	1545	3229	4000
0	1591	3229	4000
0	1616	3229	4000
0	1586	3229	4000
0	1552	3229	4000
0	1548	3229	4000
0	1559	3229	4000
0	1550	3229	4000
0	1551	3229	4000
0	1532	3229	4000
0	1534	3229	4000
0	1523	3229	4000
0	1528	3229	4000
0	1532	3229	4000
0	1520	3229	4000
0	1519	3229	4000
0	1508	3229	4000
0	1500	3229	4000
0	1513	3229	4000
0	1502	3229	4000
0	1503	3229	4000
0	1495	3229	4000
0	1486	3229	4000
0	1499	3229	4000
0	1486	3229	4000
0	1488	3229	4000
0	1490	3229	4000
0	1489	3229	4000
0	1490	3229	4000
0	1487	3229	4000
0	1490	3229	4000
0	1505	3229	4000
0	1493	3229	4000
0	1495	3229	4000
0	1482	3229	4000
0	1486	3229	4000
0	1485	3229	4000
0	1478	3229	4000
0	1483	3229	4000
0	1489	3229	4000
0	1489	3229	4000
0	1482	3229	4000
0	1479	3229	4000
0	1481	3229	4000
0	1479	3229	4000
0	1479	3229	4000
0	1478	3229	4000
0	1471	3229	4000
0	1478	3229	4000
0	1472	3229	4000
0	1473	3229	4000
0	1479	3229	4000
0	1477	3229	4000
0	1484	3229	4000
0	1469	3229	4000
0	1481	3229	4000
0	1475	3229	4000
0	1473	3229	4000
0	1471	3229	4000
0	1471	3229	4000
0	1475	3229	4000
0	1465	3229	4000
0	1467	3229	4000
0	1470	3229	4000
0	1467	3229	4000
0	1470	3229	4000
0	1471	3229	4000
0	1468	3229	4000
0	1479	3229	4000
0	1480	3229	4000
0	1474	3229	4000
0	1472	3229	4000
0	1457	3229	4000
0	1465	3229	4000
0	1439	3229	4000
0	1446	3229	4000
0	1491	3229	4000
0	1514	3229	4000
0	1496	3229	4000
0	1468	3229	4000
0	1469	3229	4000
0	1464	3229	4000
0	1461	3229	4000
0	1469	3229	4000
0	1463	3229	4000
0	1464	3229	4000
0	1455	3229	4000
0	1459	3229	4000
0	1464	3229	4000
0	1456	3229	4000
0	1462	3229	4000
0	1451	3229	4000
0	1454	3229	4000
0	1470	3229	4000
0	1455	3229	4000
0	1459	3229	4000
0	1454	3229	4000
0	1457	3229	4000
0	1454	3229	4000
0	1452	3229	4000
0	1466	3229	4000
0	1461	3229	4000
0	1463	3229	4000
0	1479	3229	4000
0	1462	3229	4000
0	1480	3229	4000
0	1489	3229	4000
0	1484	3229	4000
0	1488	3229	4000
0	1472	3229	4000
0	1483	3229	4000
0	1484	3229	4000
0	1484	3229	4000
0	1491	3229	4000
0	1478	3229	4000
0	1491	3229	4000
0	1497	3229	4000
0	1483	3229	4000
0	1495	3229	4000
0	1484	3229	4000
0	1497	3229	4000
0	1493	3229	4000
0	1488	3229	4000
0	1499	3229	4000
0	1491	3229	4000
0	1505	3229	4000
0	1504	3229	4000
0	1495	3229	4000
0	1509	3229	4000
0	1509	3229	4000
0	1510	3229	4000
0	1508	3229	4000
0	1506	3229	4000
0	1517	3229	4000
0	1510	3229	4000
0	1517	3229	4000
0	1515	3229	4000
0	1513	3229	4000
0	1514	3229	4000
0	1512	3229	4000
0	1519	3229	4000
0	1518	3229	4000
0	1518	3229	4000
0	1531	3229	4000
0	1531	3229	4000
0	1536	3229	4000
0	1535	3229	4000
0	1528	3229	4000
0	1543	3229	4000
0	1533	3229	4000
0	1541	3229	4000
0	1531	3229	4000
0	1507	3229	4000
0	1502	3229	4000
0	1554	3229	4000
0	1590	3229	4000
0	1571	3229	4000
0	1553	3229	4000
0	1555	3229	4000
0	1544	3229	4000
0	1549	3229	4000
0	1549	3229	4000
0	1552	3229	4000
0	1546	3229	4000
0	1545	3229	4000
0	1555	3229	4000
0	1554	3229	4000
0	1549	3229	4000
0	1565	3229	4000
0	1552	3229	4000
0	1561	3229	4000
0	1554	3229	4000
0	1555	3229	4000
0	1561	3229	4000
0	1555	3229	4000
0	1559	3229	4000
0	1563	3229	4000
0	1563	3229	4000
0	1570	3229	4000
0	1569	3229	4000
0	1576	3229	4000
0	1575	3229	4000
0	1584	3229	4000
0	1588	3229	4000
0	1586	3229	4000
0	1598	3229	4000
0	1594	3229	4000
0	1591	3229	4000
0	1603	3229	4000
0	1590	3229	4000
0	1614	3229	4000
0	1602	3229	4000
0	1602	3229	4000
0	1606	3229	4000
0	1597	3229	4000
0	1606	3229	4000
0	1603	3229	4000
0	1615	3229	4000
0	1609	3229	4000
0	1605	3229	4000
0	1612	3229	4000
0	1609	3229	4000
0	1614	3229	4000
0	1618	3229	4000
0	1609	3229	4000
0	1610	3229	4000
0	1612	3229	4000
0	1615	3229	4000
0	1611	3229	4000
0	1608	3229	4000
0	1616	3229	4000
0	1616	3229	4000
0	1622	3229	4000
0	1626	3229	4000
0	1615	3229	4000
0	1627	3229	4000
0	1619	3229	4000
0	1615	3229	4000
0	1627	3229	4000
0	1625	3229	4000
0	1609	3229	4000
0	1586	3229	4000
0	1598	3229	4000
0	1662	3229	4000
0	1666	3229	4000
0	1655	3229	4000
0	1634	3229	4000
0	1625	3229	4000
0	1629	3229	4000
0	1627	3229	4000
0	1619	3229	4000
0	1618	3229	4000
0	1639	3229	4000
0	1639	3229	4000
0	1620	3229	4000
0	1624	3229	4000
0	1629	3229	4000
0	1623	3229	4000
0	1630	3229	4000
0	1612	3229	4000
0	1625	3229	4000
0	1638	3229	4000
0	1631	3229	4000
0	1633	3229	4000
0	1624	3229	4000
0	1629	3229	4000
0	1637	3229	4000
0	1632	3229	4000
0	1647	3229	4000
0	1641	3229	4000
0	1654	3229	4000
0	1662	3229	4000
0	1665	3229	4000
0	1662	3229	4000
0	1672	3229	4000
0	1675	3229	4000
0	1671	3229	4000
0	1672	3229	4000
0	1674	3229	4000
0	1665	3229	4000
0	1663	3229	4000
0	1658	3229	4000
0	1665	3229	4000
0	1667	3229	4000
0	1659	3229	4000
0	1662	3229	4000
0	1659	3229	4000
0	1662	3229	4000
0	1663	3229	4000
0	1657	3229	4000
0	1672	3229	4000
0	1676	3229	4000
0	1675	3229	4000
0	1689	3229	4000
0	1681	3229	4000
0	1685	3229	4000
0	1690	3229	4000
0	1692	3229	4000
0	1707	3229	4000
0	1697	3229	4000
0	1707	3229	4000
0	1704	3229	4000
0	1707	3229	4000
0	1725	3229	4000
0	1717	3229	4000
0	1739	3229	4000
0	1732	3229	4000
0	1730	3229	4000
0	1742	3229	4000
0	1730	3229	4000
0	1745	3229	4000
0	1734	3229	4000
0	1736	3229	4000
0	1723	3229	4000
0	1697	3229	4000
0	1718	3229	4000
0	1775	3229	4000
0	1778	3229	4000
0	1761	3229	4000
0	1738	3229	4000
0	1744	3229	4000
0	1739	3229	4000
0	1737	3229	4000
0	1748	3229	4000
0	1742	3229	4000
0	1743	3229	4000
0	1739	3229	4000
0	1743	3229	4000
0	1747	3229	4000
0	1743	3229	4000
0	1752	3229	4000
0	1747	3229	4000
0	1748	3229	4000
0	1752	3229	4000
0	1743	3229	4000
0	1756	3229	4000
0	1753	3229	4000
0	1753	3229	4000
0	1761	3229	4000
0	1753	3229	4000
0	1764	3229	4000
0	1767	3229	4000
0	1765	3229	4000
0	1774	3229	4000
0	1770	3229	4000
0	1781	3229	4000
0	1773	3229	4000
0	1780	3229	4000
0	1788	3229	4000
0	1773	3229	4000
0	1779	3229	4000
0	1789	3229	4000
0	1781	3229	4000
0	1793	3229	4000
0	1788	3229	4000
0	1797	3229	4000
0	1796	3229	4000
0	1803	3229	4000
0	1805	3229	4000
0	1802	3229	4000
0	1801	3229	4000
0	1802	3229	4000
0	1800	3229	4000
0	1807	3229	4000
0	1808	3229	4000
0	1814	3229	4000
0	1817	3229	4000
0	1816	3229	4000
0	1822	3229	4000
0	1820	3229	4000
0	1823	3229	4000
0	1835	3229	4000
0	1823	3229	4000
0	1838	3229	4000
0	1838	3229	4000
0	1840	3229	4000
0	1853	3229	4000
0	1838	3229	4000
0	1849	3229	4000
0	1841	3229	4000
0	1842	3229	4000
0	1844	3229	4000
0	1835	3229	4000
0	1840	3229	4000
0	1844	3229	4000
0	1841	3229	4000
0	1848	3229	4000
0	1831	3229	4000
0	1845	3229	4000
0	1842	3229	4000
0	1837	3229	4000
0	1839	3229	4000
0	1814	3229	4000
0	1797	3229	4000
0	1807	3229	4000
0	1858	3229	4000
0	1864	3229	4000
0	1837	3229	4000
0	1824	3229	4000
0	1809	3229	4000
0	1807	3229	4000
0	1814	3229	4000
0	1796	3229	4000
0	1806	3229	4000
0	1797	3229	4000
0	1802	3229	4000
0	1810	3229	4000
0	1806	3227	4000
0	1817	3224	4000
0	1808	3218	4000
0	1808	3210	4000
0	1811	3220	4000
0	1807	3229	4000
0	1805	3229	4000
0	1740	3229	4000
-1	1700	3229	4000
-3	1649	3229	4000
-96	1622	3229	3352
-190	1569	3229	2703
-239	1546	3229	1543
-289	1480	3229	381
-144	1485	3229	248
0	1448	3229	114
0	1449	3229	284
0	1438	3229	453
0	1453	3229	1569
0	1472	3229	2685
0	1489	3229	3343
0	1512	3229	4000
0	1517	3229	4000
0	1555	3229	4000
0	1563	3229	4000
0	1581	3229	4000
0	1614	3229	4000
0	1623	3229	4000
0	1654	3229	4000
0	1667	3229	4000
0	1681	3229	4000
0	1712	3229	4000
0	1731	3229	4000
0	1746	3229	4000
0	1752	3229	4000
0	1753	3229	4000
0	1761	3229	4000
0	1786	3229	4000
0	1780	3229	4000
0	1785	3229	4000
0	1779	3229	4000
0	1782	3227	4000
0	1776	3228	4000
0	1780	3228	4000
0	1770	3229	4000
0	1772	3229	4000
0	1771	3229	4000
0	1772	3229	4000
0	1767	3229	4000
0	1775	3229	4000
0	1766	3229	4000
0	1766	3229	4000
0	1771	3229	4000
0	1775	3229	4000
0	1771	3229	4000
0	1771	3229	4000
0	1779	3229	4000
0	1780	3229	4000
0	1770	3229	4000
0	1776	3229	4000
0	1774	3229	4000
0	1772	3229	4000
0	1769	3229	4000
0	1766	3229	4000
0	1769	3229	4000
0	1747	3229	4000
0	1770	3229	4000
0	1757	3229	4000
0	1767	3229	4000
0	1763	3229	4000
0	1756	3229	4000
0	1763	3229	4000
0	1758	3229	4000
0	1751	3229	4000
0	1749	3229	4000
0	1714	3229	4000
0	1697	3229	4000
0	1708	3229	4000
0	1744	3229	4000
0	1751	3229	4000
0	1721	3229	4000
0	1703	3229	4000
0	1698	3229	4000
0	1704	3229	4000
0	1687	3229	4000
0	1679	3229	4000
0	1682	3229	4000
0	1671	3229	4000
0	1677	3229	4000
0	1663	3229	4000
0	1661	3229	4000
0	1674	3229	4000
0	1651	3229	4000
0	1659	3229	4000
0	1652	3229	4000
0	1633	3229	4000
0	1650	3229	4000
0	1634	3229	4000
0	1636	3229	4000
0	1626	3229	4000
0	1628	3229	4000
0	1626	3229	4000
0	1616	3229	4000
0	1631	3229	4000
0	1626	3229	4000
0	1626	3229	4000
0	1627	3229	4000
0	1632	3229	4000
0	1650	3229	4000
0	1657	3229	4000
0	1650	3229	4000
0	1675	3229	4000
0	1675	3229	4000
0	1683	3229	4000
0	1685	3229	4000
0	1702	3229	4000
0	1707	3229	4000
0	1703	3229	4000
0	1719	3229	4000
0	1728	3229	4000
0	1721	3229	4000
0	1734	3229	4000
0	1733	3229	4000
0	1743	3229	4000
0	1734	3229	4000
0	1739	3229	4000
0	1747	3229	4000
0	1742	3229	4000
0	1734	3229	4000
0	1743	3229	4000
0	1738	3229	4000
0	1750	3229	4000
0	1744	3229	4000
0	1750	3229	4000
0	1740	3229	4000
0	1758	3229	4000
0	1771	3229	4000
0	1765	3229	4000
0	1781	3229	4000
0	1775	3229	4000
0	1776	3229	4000
0	1785	3229	4000
0	1789	3229	4000
0	1778	3229	4000
0	1783	3229	4000
0	1781	3229	4000
0	1795	3229	4000
0	1796	3229	4000
0	1802	3229	4000
0	1805	3229	4000
0	1798	3229	4000
0	1802	3229	4000
0	1806	3229	4000
0	1810	3229	4000
0	1804	3229	4000
0	1796	3229	4000
0	1780	3229	4000
0	1762	3229	4000
0	1815	3229	4000
0	1844	3229	4000
0	1837	3229	4000
0	1810	3229	4000
0	1790	3229	4000
0	1806	3229	4000
0	1791	3229	4000
0	1799	3229	4000
0	1798	3229	4000
0	1784	3229	4000
0	1790	3229	4000
0	1786	3229	4000
0	1785	3229	4000
0	1778	3229	4000
0	1779	3229	4000
0	1778	3229	4000
0	1771	3229	4000
0	1764	3229	4000
0	1775	3229	4000
0	1762	3229	4000
0	1762	3229	4000
0	1755	3229	4000
0	1763	3229	4000
0	1752	3229	4000
0	1747	3229	4000
0	1760	3229	4000
0	1750	3229	4000
0	1755	3229	4000
0	1753	3229	4000
0	1745	3229	4000
0	1752	3229	4000
0	1747	3229	4000
0	1744	3229	4000
0	1746	3229	4000
0	1736	3229	4000
0	1742	3229	4000
0	1737	3229	4000
0	1734	3229	4000
0	1733	3229	4000
0	1716	3229	4000
0	1718	3229	4000
0	1719	3229	4000
0	1709	3229	4000
0	1715	3229	4000
0	1702	3229	4000
0	1698	3229	4000
0	1691	3229	4000
0	1696	3229	4000
0	1696	3229	4000
0	1685	3229	4000
0	1685	3229	4000
0	1665	3229	4000
0	1683	3229	4000
0	1674	3229	4000
0	1660	3229	4000
0	1666	3229	4000
0	1656	3229	4000
0	1654	3229	4000
0	1656	3229	4000
0	1641	3229	4000
0	1647	3229	4000
0	1641	3229	4000
0	1643	3229	4000
0	1637	3229	4000
0	1628	3229	4000
0	1632	3229	4000
0	1623	3229	4000
0	1619	3229	4000
0	1619	3229	4000
0	1609	3229	4000
0	1612	3229	4000
0	1599	3229	4000
0	1602	3229	4000
0	1596	3229	4000
0	1589	3229	4000
0	1598	3229	4000
0	1589	3229	4000
0	1589	3229	4000
0	1592	3229	4000
0	1579	3229	4000
0	1585	3229	4000
0	1577	3229	4000
0	1578	3229	4000
0	1576	3229	4000
0	1541	3229	4000
0	1534	3229	4000
0	1560	3229	4000
0	1601	3229	4000
0	1596	3229	4000
0	1561	3229	4000
0	1562	3229	4000
0	1554	3229	4000
0	1552	3229	4000
0	1553	3229	4000
0	1540	3229	4000
0	1548	3229	4000
0	1539	3229	4000
0	1539	3229	4000
0	1540	3229	4000
0	1532	3229	4000
0	1541	3229	4000
0	1533	3229	4000
0	1531	3229	4000
0	1532	3229	4000
0	1519	3229	4000
0	1537	3229	4000
0	1528	3229	4000
0	1521	3229	4000
0	1522	3229	4000
0	1517	3229	4000
0	1533	3229	4000
0	1531	3229	4000
0	1522	3229	4000
0	1531	3229	4000
0	1534	3229	4000
0	1538	3229	4000
0	1538	3229	4000
0	1541	3229	4000
0	1537	3229	4000
0	1532	3229	4000
0	1537	3229	4000
0	1531	3229	4000
0	1526	3229	4000
0	1544	3229	4000
0	1538	3229	4000
0	1533	3229	4000
0	1534	3229	4000
0	1532	3229	4000
0	1543	3229	4000
0	1531	3229	4000
0	1532	3229	4000
0	1532	3229	4000
0	1533	3229	4000
0	1534	3229	4000
0	1531	3229	4000
0	1532	3229	4000
0	1530	3229	4000
0	1535	3229	4000
0	1536	3229	4000
0	1531	3229	4000
0	1537	3229	4000
0	1540	3229	4000
0	1538	3229	4000
0	1540	3229	4000
0	1536	3229	4000
0	1551	3229	4000
0	1543	3229	4000
0	1546	3229	4000
0	1543	3229	4000
0	1545	3229	4000
0	1560	3229	4000
0	1542	3229	4000
0	1559	3229	4000
0	1555	3229	4000
0	1556	3229	4000
0	1558	3229	4000
0	1555	3229	4000
0	1558	3229	4000
0	1569	3229	4000
0	1559	3229	4000
0	1576	3229	4000
0	1565	3229	4000
0	1571	3229	4000
0	1572	3229	4000
0	1568	3229	4000
0	1573	3229	4000
0	1573	3229	4000
0	1572	3229	4000
0	1584	3229	4000
0	1575	3229	4000
0	1579	3229	4000
0	1579	3229	4000
0	1576	3229	4000
0	1580	3229	4000
0	1573	3229	4000
0	1574	3229	4000
0	1588	3229	4000
0	1592	3229	4000
0	1588	3229	4000
0	1591	3229	4000
0	1589	3229	4000
0	1596	3229	4000
0	1598	3229	4000
0	1601	3229	4000
0	1585	3229	4000
0	1585	3229	4000
0	1559	3229	4000
0	1579	3229	4000
0	1625	3229	4000
0	1636	3229	4000
0	1620	3229	4000
0	1599	3229	4000
0	1601	3229	4000
0	1608	3229	4000
0	1593	3229	4000
0	1603	3229	4000
0	1598	3229	4000
0	1599	3229	4000
0	1590	3229	4000
0	1595	3229	4000
0	1596	3229	4000
0	1591	3229	4000
0	1587	3229	4000
0	1587	3229	4000
0	1577	3229	4000
0	1601	3229	4000
0	1597	3229	4000
0	1590	3229	4000
0	1598	3229	4000
0	1594	3229	4000
0	1604	3229	4000
0	1601	3229	4000
0	1598	3229	4000
0	1612	3229	4000
0	1607	3229	4000
0	1626	3229	4000
0	1621	3229	4000
0	1622	3229	4000
0	1633	3229	4000
0	1633	3229	4000
0	1637	3229	4000
0	1631	3229	4000
0	1646	3229	4000
0	1648	3229	4000
0	1642	3229	4000
0	1650	3229	4000
0	1651	3229	4000
0	1655	3229	4000
0	1656	3229	4000
0	1654	3229	4000
0	1662	3229	4000
0	1656	3229	4000
0	1663	3229	4000
0	1669	3229	4000
0	1661	3229	4000
0	1667	3229	4000
0	1671	3229	4000
0	1676	3229	4000
0	1679	3229	4000
0	1678	3229	4000
0	1682	3229	4000
0	1682	3229	4000
0	1686	3229	4000
0	1689	3229	4000
0	1681	3229	4000
0	1693	3229	4000
0	1686	3229	4000
0	1702	3229	4000
0	1701	3229	4000
0	1692	3229	4000
0	1704	3229	4000
0	1704	3229	4000
0	1702	3229	4000
0	1708	3229	4000
0	1704	3229	4000
0	1712	3229	4000
0	1712	3229	4000
0	1719	3229	4000
0	1722	3229	4000
0	1713	3229	4000
0	1729	3229	4000
0	1718	3229	4000
0	1723	3229	4000
0	1726	3229	4000
0	1720	3229	4000
0	1739	3229	4000
0	1729	3229	4000
0	1730	3229	4000
0	1735	3229	4000
0	1727	3229	4000
0	1732	3229	4000
0	1731	3229	4000
0	1734	3229	4000
0	1736	3229	4000
0	1738	3229	4000
0	1745	3229	4000
0	1747	3229	4000
0	1745	3229	4000
0	1749	3229	4000
0	1742	3229	4000
0	1753	3229	4000
0	1743	3229	4000
0	1742	3229	4000
0	1728	3229	4000
0	1710	3229	4000
0	1776	3229	4000
0	1800	3229	4000
0	1775	3229	4000
0	1760	3229	4000
0	1742	3229	4000
0	1761	3229	4000
0	1760	3229	4000
0	1760	3229	4000
0	1758	3229	4000
0	1747	3229	4000
0	1755	3229	4000
0	1757	3229	4000
0	1754	3229	4000
0	1756	3229	4000
0	1756	3229	4000
0	1763	3229	4000
0	1757	3229	4000
0	1758	3229	4000
0	1760	3229	4000
0	1756	3229	4000
0	1758	3229	4000
0	1761	3229	4000
0	1758	3229	4000
0	1766	3229	4000
0	1768	3229	4000
0	1774	3229	4000
0	1771	3229	4000
0	1778	3229	4000
0	1779	3229	4000
0	1782	3229	4000
0	1790	3229	4000
0	1783	3229	4000
0	1780	3229	4000
0	1788	3229	4000
0	1795	3229	4000
0	1803	3229	4000
0	1793	3229	4000
0	1795	3229	4000
0	1789	3229	4000
0	1784	3229	4000
0	1788	3229	4000
0	1801	3229	4000
0	1792	3229	4000
0	1790	3229	4000
0	1781	3229	4000
0	1779	3229	4000
0	1781	3229	4000
0	1784	3229	4000
0	1783	3229	4000
0	1774	3229	4000
0	1783	3229	4000
0	1780	3229	4000
0	1779	3229	4000
0	1788	3229	4000
0	1784	3229	4000
0	1790	3229	4000
0	1793	3229	4000
0	1789	3229	4000
0	1798	3229	4000
0	1803	3229	4000
0	1810	3229	4000
0	1808	3229	4000
0	1816	3229	4000
0	1823	3229	4000
0	1828	3229	4000
0	1832	3229	4000
0	1827	3229	4000
0	1839	3229	4000
0	1845	3229	4000
0	1842	3229	4000
0	1852	3229	4000
0	1843	3229	4000
0	1854	3229	4000
0	1855	3229	4000
0	1851	3229	4000
0	1856	3229	4000
0	1852	3229	4000
0	1851	3229	4000
0	1854	3229	4000
0	1850	3229	4000
0	1859	3229	4000
0	1853	3229	4000
0	1855	3229	4000
0	1859	3229	4000
0	1861	3229	4000
0	1861	3229	4000
0	1856	3229	4000
0	1846	3229	4000
0	1842	3229	4000
0	1833	3229	4000
0	1834	3229	4000
0	1807	3229	4000
0	1792	3229	4000
0	1844	3229	4000
0	1874	3229	4000
0	1903	3229	4000
0	1727	3229	4000
0	1817	3229	4000
0	1854	3229	4000
0	1863	3229	4000
0	1877	3229	4000
0	1882	3229	4000
0	1886	3229	4000
0	1890	3229	4000
0	1881	3229	4000
0	1887	3229	4000
0	1889	3229	4000
0	1888	3229	4000
0	1888	3229	4000
0	1878	3229	4000
0	1884	3229	4000
0	1877	3229	4000
0	1868	3229	4000
0	1877	3229	4000
0	1869	3229	4000
0	1881	3229	4000
0	1875	3229	4000
0	1873	3229	4000
0	1877	3229	4000
0	1864	3229	4000
0	1873	3229	4000
0	1880	3229	4000
0	1881	3229	4000
0	1885	3229	4000
0	1888	3229	4000
0	1896	3229	4000
0	1890	3229	4000
0	1895	3229	4000
0	1897	3229	4000
0	1898	3229	4000
0	1897	3229	4000
0	1904	3229	4000
0	1899	3229	4000
0	1905	3229	4000
0	1897	3229	4000
0	1906	3229	4000
0	1904	3229	4000
0	1903	3229	4000
0	1904	3229	4000
0	1910	3229	4000
0	1913	3229	4000
0	1924	3229	4000
0	1916	3229	4000
0	1929	3229	4000
0	1916	3229	4000
0	1922	3217	4000
0	1923	3203	4000
0	1914	3213	4000
0	1919	3223	4000
0	1910	3226	4000
0	1880	3229	4000
0	1862	3229	4000
0	1832	3229	4000
0	1823	3229	3882
0	1782	3229	3762
0	1785	3229	3318
0	1771	3229	2872
0	1770	3229	2320
0	1767	3229	1766
0	1752	3229	1610
0	1745	3229	1452
0	1753	3229	1729
0	1755	3229	2006
0	1762	3229	2576
0	1736	3229	3146
0	1782	3229	3573
0	1796	3229	4000
0	1799	3229	4000
0	1835	3229	4000
0	1842	3229	4000
0	1855	3229	4000
0	1867	3229	4000
0	1873	3229	4000
0	1876	3229	4000
0	1882	3229	4000
0	1891	3229	4000
0	1905	3229	4000
0	1888	3229	4000
0	1902	3229	4000
0	1910	3229	4000
0	1909	3229	4000
0	1917	3229	4000
0	1907	3229	4000
0	1913	3229	4000
0	1917	3229	4000
0	1919	3229	4000
0	1919	3229	4000
0	1912	3229	4000
0	1889	3229	4000
0	1870	3229	4000
0	1935	3229	4000
0	1962	3229	4000
0	1947	3229	4000
0	1937	3229	4000
0	1923	3229	4000
0	1928	3229	4000
0	1930	3229	4000
0	1928	3229	4000
0	1932	3229	4000
0	1926	3229	4000
0	1930	3229	4000
0	1932	3229	4000
0	1922	3229	4000
0	1933	3229	4000
0	1921	3229	4000
0	1927	3229	4000
0	1933	3229	4000
0	1916	3229	4000
0	1929	3229	4000
0	1920	3229	4000
0	1931	3229	4000
0	1925	3229	4000
0	1924	3229	4000
0	1928	3229	4000
0	1923	3229	4000
0	1925	3229	4000
0	1938	3229	4000
0	1940	3229	4000
0	1944	3229	4000
0	1945	3229	4000
0	1946	3229	4000
0	1945	3229	4000
0	1949	3229	4000
0	1955	3229	4000
0	1955	3229	4000
0	1952	3229	4000
0	1950	3229	4000
0	1951	3229	4000
0	1964	3229	4000
0	1951	3229	4000
0	1946	3229	4000
0	1958	3229	4000
0	1948	3229	4000
0	1947	3229	4000
0	1956	3229	4000
0	1950	3229	4000
0	1948	3229	4000
0	1947	3229	4000
0	1948	3229	4000
0	1954	3229	4000
0	1948	3229	4000
0	1947	3229	4000
0	1951	3229	4000
0	1947	3229	4000
0	1937	3229	4000
0	1944	3229	4000
0	1940	3229	4000
0	1941	3229	4000
0	1948	3229	4000
0	1938	3229	4000
0	1952	3229	4000
0	1935	3229	4000
0	1946	3229	4000
0	1952	3229	4000
0	1934	3229	4000
0	1950	3229	4000
0	1943	3229	4000
0	1945	3229	4000
0	1952	3229	4000
0	1939	3229	4000
0	1951	3229	4000
0	1935	3229	4000
0	1961	3229	4000
0	1958	3229	4000
0	1949	3229	4000
0	1955	3229	4000
0	1956	3229	4000
0	1955	3229	4000
0	1962	3229	4000
0	1958	3229	4000
0	1982	3229	4000
0	1977	3229	4000
0	1978	3229	4000
0	1979	3229	4000
0	1978	3229	4000
0	1994	3229	4000
0	1995	3229	4000
0	1988	3229	4000
0	1974	3229	4000
0	1963	3229	4000
0	2015	3229	4000
0	2052	3229	4000
0	2046	3229	4000
0	2028	3229	4000
0	2015	3229	4000
0	2025	3229	4000
0	2025	3229	4000
0	2018	3229	4000
0	2034	3229	4000
0	2023	3229	4000
0	2022	3229	4000
0	2026	3229	4000
0	2025	3229	4000
0	2035	3229	4000
0	2018	3229	4000
0	2025	3229	4000
0	2028	3229	4000
0	2022	3229	4000
0	2033	3229	4000
0	2025	3229	4000
0	2033	3229	4000
0	2036	3229	4000
0	2031	3229	4000
0	2043	3229	4000
0	2053	3229	4000
0	2043	3229	4000
0	2049	3229	4000
0	2051	3229	4000
0	2067	3229	4000
0	2067	3229	4000
0	2068	3229	4000
0	2070	3229	4000
0	2076	3229	4000
0	2082	3229	4000
0	2071	3229	4000
0	2082	3229	4000
0	2085	3229	4000
0	2082	3229	4000
0	2100	3229	4000
0	2098	3229	4000
0	2097	3229	4000
0	2079	3229	4000
0	2113	3229	4000
0	2118	3229	4000
0	2086	3229	4000
0	2085	3229	4000
0	2055	3229	4000
0	2015	3229	4000
0	1987	3229	4000
0	1935	3229	3080
0	1864	3229	2158
0	1825	3229	1336
0	1795	3229	513
0	1778	3229	441
0	1735	3229	368
0	1727	3229	865
0	1737	3229	1362
0	1749	3229	2465
0	1766	3229	3567
0	1783	3229	3784
0	1797	3229	4000
0	1832	3229	4000
0	1838	3229	4000
0	1871	3229	4000
0	1863	3229	4000
0	1892	3229	4000
0	1907	3229	4000
0	1912	3229	4000
0	1942	3229	4000
0	1931	3229	4000
0	1944	3229	4000
0	1950	3229	4000
0	1965	3229	4000
0	1974	3229	4000
0	1969	3229	4000
0	1972	3229	4000
0	1983	3229	4000
0	1975	3229	4000
0	1972	3229	4000
0	1967	3229	4000
0	1969	3229	4000
0	1970	3229	4000
0	1963	3229	4000
0	1974	3229	4000
0	1968	3229	4000
0	1982	3229	4000
0	1979	3229	4000
0	1965	3229	4000
0	1982	3229	4000
0	1970	3229	4000
0	1975	3229	4000
0	1982	3229	4000
0	1967	3229	4000
0	1961	3229	4000
0	1943	3229	4000
0	1988	3229	4000
0	2029	3229	4000
0	2004	3229	4000
0	1994	3229	4000
0	1980	3229	4000
0	1972	3229	4000
0	1992	3229	4000
0	1972	3229	4000
0	1983	3229	4000
0	1969	3229	4000
0	1978	3229	4000
0	1974	3229	4000
0	1967	3229	4000
0	1972	3229	4000
0	1963	3229	4000
0	1962	3229	4000
0	1972	3229	4000
0	1955	3229	4000
0	1958	3229	4000
0	1952	3229	4000
0	1952	3229	4000
0	1947	3229	4000
0	1949	3229	4000
0	1948	3229	4000
0	1944	3229	4000
0	1946	3229	4000
0	1947	3229	4000
0	1948	3229	4000
0	1949	3229	4000
0	1942	3229	4000
0	1952	3229	4000
0	1947	3229	4000
0	1946	3229	4000
0	1944	3229	4000
0	1943	3229	4000
0	1945	3229	4000
0	1940	3229	4000
0	1942	3229	4000
0	1938	3229	4000
0	1937	3229	4000
0	1932	3229	4000
0	1937	3229	4000
0	1927	3229	4000
0	1929	3229	4000
0	1923	3229	4000
0	1926	3229	4000
0	1924	3229	4000
0	1913	3229	4000
0	1915	3229	4000
0	1911	3229	4000
0	1915	3229	4000
0	1903	3229	4000
0	1894	3229	4000
0	1906	3229	4000
0	1884	3229	4000
0	1899	3229	4000
0	1884	3229	4000
0	1888	3229	4000
0	1880	3229	4000
0	1872	3229	4000
0	1871	3229	4000
0	1859	3229	4000
0	1852	3229	4000
0	1862	3229	4000
0	1836	3229	4000
0	1834	3229	4000
0	1824	3229	4000
0	1820	3229	4000
0	1806	3229	4000
0	1782	3229	4000
0	1797	3229	4000
0	1769	3229	4000
0	1778	3229	4000
0	1782	3229	4000
0	1764	3229	4000
0	1771	3229	4000
0	1758	3229	4000
0	1765	3229	4000
0	1779	3229	4000
0	1758	3229	4000
0	1785	3229	4000
0	1763	3229	4000
0	1739	3229	4000
0	1744	3229	4000
0	1785	3229	4000
0	1833	3229	4000
0	1808	3229	4000
0	1790	3229	4000
0	1791	3229	4000
0	1776	3229	4000
0	1795	3229	4000
0	1775	3229	4000
0	1795	3229	4000
0	1803	3229	4000
0	1786	3229	4000
0	1810	3229	4000
0	1808	3229	4000
0	1816	3229	4000
0	1836	3229	4000
0	1820	3229	4000
0	1844	3229	4000
0	1844	3229	4000
0	1843	3229	4000
0	1855	3229	4000
0	1858	3229	4000
0	1869	3229	4000
0	1864	3229	4000
0	1857	3229	4000
0	1876	3229	4000
0	1875	3229	4000
0	1879	3229	4000
0	1885	3229	4000
0	1880	3229	4000
0	1893	3229	4000
0	1884	3229	4000
0	1888	3229	4000
0	1886	3229	4000
0	1884	3229	4000
0	1885	3229	4000
0	1880	3229	4000
0	1888	3229	4000
0	1889	3229	4000
0	1877	3229	4000
0	1886	3229	4000
0	1882	3229	4000
0	1889	3229	4000
0	1885	3229	4000
0	1880	3229	4000
0	1887	3229	4000
0	1894	3229	4000
0	1887	3229	4000
0	1884	3229	4000
0	1887	3229	4000
0	1896	3229	4000
0	1886	3229	4000
0	1893	3229	4000
0	1892	3229	4000
0	1885	3229	4000
0	1895	3229	4000
0	1889	3229	4000
0	1885	3229	4000
0	1881	3229	4000
0	1886	3229	4000
0	1888	3229	4000
0	1882	3229	4000
0	1885	3229	4000
0	1882	3229	4000
0	1874	3229	4000
0	1880	3229	4000
0	1868	3229	4000
0	1875	3229	4000
0	1877	3229	4000
0	1859	3229	4000
0	1862	3229	4000
0	1868	3229	4000
0	1856	3229	4000
0	1857	3229	4000
0	1860	3229	4000
0	1861	3229	4000
0	1861	3229	4000
0	1872	3090	3788
0	1879	2950	3575
0	1868	2696	3202
0	1886	2440	2828
0	1864	2741	3043
0	1834	3041	3257
0	1836	3111	3629
0	1820	3180	4000
0	1796	3205	4000
0	1775	3229	4000
0	1721	3229	4000
0	1698	3229	4000
0	1718	3229	4000
0	1734	3229	4000
0	1674	3229	4000
0	1646	3229	4000
0	1655	3229	4000
0	1660	3229	4000
0	1692	3229	4000
0	1711	3229	4000
0	1739	3229	3665
0	1770	3229	3329
0	1789	3137	3331
0	1815	3044	3333
0	1827	3030	3588
0	1836	3015	3843
0	1832	3009	3922
0	1828	3001	4000
0	1818	3088	4000
0	1797	3175	4000
0	1779	3202	4000
0	1772	3229	4000
0	1749	3229	4000
0	1755	3229	4000
0	1734	3229	4000
0	1731	3229	4000
0	1709	3229	4000
0	1697	3229	4000
0	1696	3229	4000
0	1692	3229	4000
0	1689	3229	4000
0	1699	3229	4000
0	1687	3229	4000
0	1683	3229	4000
0	1676	3229	4000
0	1683	3229	4000
0	1677	3229	4000
0	1672	3229	4000
0	1680	3229	4000
0	1669	3229	4000
0	1686	3229	4000
0	1676	3229	4000
0	1666	3229	4000
0	1679	3229	4000
0	1680	3229	4000
0	1674	3229	4000
0	1668	3229	4000
0	1677	3229	4000
0	1681	3229	4000
0	1676	3229	4000
0	1679	3229	4000
0	1676	3229	4000
0	1681	3229	4000
0	1687	3229	4000
0	1690	3229	4000
0	1678	3229	4000
0	1686	3229	4000
0	1691	3229	4000
0	1697	3229	4000
0	1697	3229	4000
0	1713	3229	4000
0	1717	3229	4000
0	1720	3229	4000
0	1723	3229	4000
0	1716	3229	4000
0	1720	3229	4000
0	1731	3229	4000
0	1719	3229	4000
0	1740	3229	4000
0	1738	3229	4000
0	1738	3229	4000
0	1748	3229	4000
0	1743	3229	4000
0	1757	3229	4000
0	1758	3229	4000
0	1762	3229	4000
0	1756	3229	4000
0	1760	3229	4000
0	1764	3229	4000
0	1760	3229	4000
0	1758	3229	4000
0	1764	3229	4000
0	1761	3229	4000
0	1761	3229	4000
0	1769	3229	4000
0	1775	3229	4000
0	1771	3229	4000
0	1771	3229	4000
0	1784	3229	4000
0	1784	3229	4000
0	1783	3229	4000
0	1781	3229	4000
0	1778	3229	4000
0	1747	3229	4000
0	1747	3229	4000
0	1800	3229	4000
0	1834	3229	4000
0	1813	3229	4000
0	1798	3229	4000
0	1795	3229	4000
0	1801	3229	4000
0	1799	3229	4000
0	1796	3229	4000
0	1801	3229	4000
0	1796	3229	4000
0	1810	3229	4000
0	1808	3229	4000
0	1803	3229	4000
0	1806	3229	4000
0	1804	3229	4000
0	1816	3229	4000
0	1818	3229	4000
0	1811	3229	4000
0	1811	3229	4000
0	1813	3229	4000
0	1806	3229	4000
0	1808	3229	4000
0	1819	3229	4000
0	1823	3229	4000
0	1825	3229	4000
0	1826	3229	4000
0	1834	3229	4000
0	1841	3229	4000
0	1851	3229	4000
0	1849	3229	4000
0	1861	3229	4000
0	1878	3225	4000
0	1884	3219	4000
0	1888	3168	4000
0	1889	3116	4000
0	1887	3128	4000
0	1878	3140	4000
0	1863	3185	4000
0	1857	3229	4000
0	1837	3229	4000
0	1827	3229	4000
0	1814	3229	4000
0	1793	3229	4000
0	1799	3229	4000
0	1775	3229	4000
0	1791	3229	4000
0	1781	3229	4000
0	1776	3229	4000
0	1788	3229	4000
0	1800	3229	4000
0	1821	3229	4000
0	1857	3229	4000
0	1905	3229	4000
0	1928	2801	3879
0	1954	2372	3757
0	1975	1998	3579
0	1976	1622	3399
0	1977	1700	3590
0	1963	1777	3781
0	1946	2189	3891
0	1915	2601	4000
0	1892	2914	4000
0	1873	3227	4000
0	1861	3228	4000
0	1851	3229	4000
0	1850	3229	4000
0	1839	3229	4000
0	1820	3229	4000
0	1828	3229	4000
0	1819	3229	4000
0	1836	3229	4000
0	1835	3229	4000
0	1838	3229	4000
0	1845	3229	4000
0	1846	3229	4000
0	1848	3229	4000
0	1854	3229	4000
0	1848	3229	4000
0	1861	3229	4000
0	1856	3229	4000
0	1859	3229	4000
0	1872	3229	4000
0	1864	3229	4000
0	1863	3229	4000
0	1850	3229	4000
0	1833	3229	4000
0	1886	3229	4000
0	1930	3229	4000
0	1920	3229	4000
0	1895	3229	4000
0	1901	3229	4000
0	1897	3229	4000
0	1899	3229	4000
0	1898	3229	4000
0	1905	3229	4000
0	1910	3229	4000
0	1901	3229	4000
0	1893	3229	4000
0	1892	3229	4000
0	1902	3229	4000
0	1904	3229	4000
0	1897	3229	4000
0	1886	3229	4000
0	1906	3229	4000
0	1882	3229	4000
0	1890	3229	4000
0	1893	3229	4000
0	1892	3229	4000
0	1897	3229	4000
0	1886	3229	4000
0	1887	3229	4000
0	1902	3229	4000
0	1897	3229	4000
0	1907	3229	4000
0	1892	3229	4000
0	1902	3229	4000
0	1899	3229	4000
0	1907	3229	4000
0	1916	3229	4000
0	1901	3229	4000
0	1901	3229	4000
0	1893	3229	4000
0	1903	3229	4000
0	1908	3229	4000
0	1903	3229	4000
0	1896	3229	4000
0	1896	3229	4000
0	1885	3229	4000
0	1895	3229	4000
0	1896	3229	4000
0	1899	3229	4000
0	1892	3229	4000
0	1879	3229	4000
0	1904	3229	4000
0	1884	3229	4000
0	1885	3229	4000
0	1893	3229	4000
0	1884	3229	4000
0	1887	3229	4000
0	1888	3229	4000
0	1882	3229	4000
0	1882	3229	4000
0	1873	3229	4000
0	1871	3229	4000
0	1875	3229	4000
0	1880	3229	4000
0	1874	3229	4000
0	1866	3229	4000
0	1859	3229	4000
0	1851	3229	4000
0	1860	3229	4000
0	1870	3229	4000
0	1857	3229	4000
0	1860	3229	4000
0	1842	3229	4000
0	1850	3229	4000
0	1844	3229	4000
0	1836	3229	4000
0	1831	3229	4000
0	1834	3229	4000
0	1839	3229	4000
0	1839	3229	4000
0	1836	3229	4000
0	1838	3229	4000
0	1824	3229	4000
0	1832	3229	4000
0	1826	3229	4000
0	1814	3229	4000
0	1831	3229	4000
0	1808	3229	4000
0	1795	3229	4000
0	1801	3229	4000
0	1842	3229	4000
0	1861	3229	4000
0	1833	3229	4000
0	1821	3229	4000
0	1810	3229	4000
0	1802	3229	4000
0	1809	3229	4000
0	1800	3229	4000
0	1816	3229	4000
0	1804	3229	4000
0	1798	3229	4000
0	1807	3229	4000
0	1795	3229	4000
0	1808	3229	4000
0	1801	3229	4000
0	1799	3229	4000
0	1801	3229	4000
0	1792	3229	4000
0	1804	3229	4000
0	1797	3229	4000
0	1790	3229	4000
0	1799	3229	4000
0	1791	3229	4000
0	1801	3229	4000
0	1820	3229	4000
0	1820	3229	4000
0	1831	3229	4000
0	1827	3229	4000
0	1837	3229	4000
0	1845	3229	4000
0	1846	3229	4000
0	1856	3228	4000
0	1855	3225	4000
0	1857	3039	4000
0	1859	2852	4000
0	1857	2640	3910
0	1860	2427	3818
0	1840	2653	3785
0	1829	2878	3751
0	1800	3054	3876
0	1785	3229	4000
0	1756	3229	4000
0	1740	3229	4000
0	1728	3229	4000
0	1700	3229	4000
0	1697	3229	4000
0	1697	3229	4000
0	1693	3229	4000
0	1694	3229	4000
0	1713	3229	4000
0	1704	3229	4000
0	1738	3229	4000
0	1766	3229	4000
0	1800	2991	4000
0	1827	2751	4000
0	1845	2516	3776
0	1864	2279	3551
0	1842	2337	3703
0	1834	2395	3855
0	1821	2571	3928
0	1797	2746	4000
0	1790	2951	4000
0	1776	3155	4000
0	1778	3192	4000
0	1774	3229	4000
0	1763	3229	4000
0	1765	3229	4000
0	1753	3229	4000
0	1740	3229	4000
0	1750	3229	4000
0	1748	3229	4000
0	1748	3229	4000
0	1749	3229	4000
0	1751	3229	4000
0	1752	3229	4000
0	1744	3229	4000
0	1757	3229	4000
0	1752	3229	4000
0	1750	3229	4000
0	1745	3229	4000
0	1748	3229	4000
0	1732	3229	4000
0	1708	3229	4000
0	1714	3229	4000
0	1769	3229	4000
0	1804	3229	4000
0	1795	3229	4000
0	1769	3229	4000
0	1768	3229	4000
0	1772	3229	4000
0	1767	3229	4000
0	1775	3229	4000
0	1772	3229	4000
0	1782	3229	4000
0	1780	3229	4000
0	1784	3229	4000
0	1790	3229	4000
0	1786	3229	4000
0	1782	3229	4000
0	1782	3229	4000
0	1780	3229	4000
0	1782	3229	4000
0	1778	3229	4000
0	1784	3229	4000
0	1776	3229	4000
0	1774	3229	4000
0	1790	3229	4000
0	1780	3229	4000
0	1788	3229	4000
0	1791	3229	4000
0	1791	3229	4000
0	1804	3229	4000
0	1806	3229	4000
0	1806	3229	4000
0	1813	3229	4000
0	1821	3229	4000
0	1822	3229	4000
0	1835	3229	4000
0	1839	3229	4000
0	1845	3229	4000
0	1842	3229	4000
0	1845	3229	4000
0	1838	3229	4000
0	1841	3229	4000
0	1841	3229	4000
0	1826	3229	4000
0	1834	3229	4000
0	1832	3229	4000
0	1835	3229	4000
0	1825	3229	4000
0	1828	3229	4000
0	1832	3229	4000
0	1822	3229	4000
0	1828	3229	4000
0	1818	3229	4000
0	1818	3229	4000
0	1835	3229	4000
0	1807	3229	4000
0	1826	3229	4000
0	1811	3229	4000
0	1816	3229	4000
0	1824	3229	4000
0	1808	3229	4000
0	1828	3229	4000
0	1801	3229	4000
0	1815	3229	4000
0	1814	3229	4000
0	1799	3229	4000
0	1821	3229	4000
0	1813	3229	4000
0	1818	3229	4000
0	1824	3229	4000
0	1815	3229	4000
0	1834	3229	4000
0	1824	3229	4000
0	1838	3229	4000
0	1845	3229	4000
0	1844	3229	4000
0	1868	3229	4000
0	1868	3229	4000
0	1888	3229	4000
0	1905	3229	4000
0	1903	3229	4000
0	1928	3229	4000
0	1935	3229	4000
0	1941	3229	4000
0	1965	3229	4000
0	1960	3229	4000
0	1968	3229	4000
0	1961	3229	4000
0	1998	3229	4000
0	2060	3229	4000
0	2069	3229	4000
0	2066	3229	4000
0	2063	3229	4000
0	2087	3229	4000
0	2088	3229	4000
0	2100	3229	4000
0	2122	3229	4000
0	2138	3229	4000
0	2150	3229	4000
0	2153	3229	4000
0	2147	3229	4000
0	2162	3229	4000
0	2159	3229	4000
0	2158	3229	4000
0	2152	3229	4000
0	2134	3229	4000
0	2126	3229	4000
0	2114	3229	4000
0	2116	3229	4000
0	2113	3229	4000
0	2096	3229	4000
0	2094	3229	4000
0	2103	3229	4000
0	2113	3229	4000
0	2104	3229	4000
0	2121	3229	4000
0	2141	3229	4000
0	2146	3229	4000
0	2160	3229	4000
0	2178	3229	4000
0	2189	3229	4000
0	2209	3229	4000
0	2210	3229	4000
0	2225	3229	4000
0	2232	3229	4000
0	2228	3229	4000
0	2240	3229	4000
0	2238	3229	4000
0	2242	3229	4000
0	2247	3229	4000
0	2246	3229	4000
0	2245	3229	4000
0	2241	3229	4000
0	2239	3229	4000
0	2233	3229	4000
0	2227	3229	4000
0	2226	3229	4000
0	2213	3229	4000
0	2214	3229	4000
0	2202	3229	4000
0	2203	3229	4000
0	2199	3229	4000
0	2202	3229	4000
0	2198	3229	4000
0	2193	3229	4000
0	2188	3229	4000
0	2187	3229	4000
0	2189	3229	4000
0	2191	3229	4000
0	2188	3229	4000
0	2184	3229	4000
0	2189	3229	4000
0	2185	3229	4000
0	2191	3229	4000
0	2180	3229	4000
0	2179	3229	4000
0	2178	3229	4000
0	2173	3229	4000
0	2180	3229	4000
0	2172	3229	4000
0	2166	3229	4000
0	2164	3229	4000
0	2164	3229	4000
0	2167	3229	4000
0	2163	3229	4000
0	2151	3229	4000
0	2152	3229	4000
0	2147	3229	4000
0	2156	3229	4000
0	2159	3229	4000
0	2157	3229	4000
0	2156	3229	4000
0	2154	3229	4000
0	2167	3229	4000
0	2159	3229	4000
0	2156	3229	4000
0	2161	3229	4000
0	2152	3229	4000
0	2139	3229	4000
0	2122	3229	4000
0	2140	3229	4000
0	2187	3229	4000
0	2181	3229	4000
0	2161	3229	4000
0	2152	3229	4000
0	2142	3229	4000
0	2145	3229	4000
0	2141	3229	4000
0	2150	3229	4000
0	2142	3229	4000
0	2143	3229	4000
0	2143	3229	4000
0	2127	3229	4000
0	2134	3229	4000
0	2137	3229	4000
0	2129	3229	4000
0	2139	3229	4000
0	2131	3229	4000
0	2128	3229	4000
0	2136	3229	4000
0	2125	3229	4000
0	2121	3229	4000
0	2119	3229	4000
0	2117	3229	4000
0	2118	3229	4000
0	2114	3229	4000
0	2117	3229	4000
0	2111	3229	4000
0	2124	3229	4000
0	2117	3229	4000
0	2122	3229	4000
0	2117	3229	4000
0	2106	3229	4000
0	2114	3229	4000
0	2114	3229	4000
0	2113	3229	4000
0	2118	3229	4000
0	2117	3229	4000
0	2120	3229	4000
0	2125	3229	4000
0	2138	3229	4000
0	2146	3229	4000
0	2150	3229	4000
0	2159	3229	4000
0	2182	3229	4000
0	2179	3229	4000
0	2202	3229	4000
0	2211	3229	4000
0	2230	3229	4000
0	2243	3229	4000
0	2258	3229	4000
0	2282	3229	4000
0	2290	3229	4000
0	2303	3229	4000
0	2314	3229	4000
0	2308	3229	4000
0	2322	3229	4000
0	2324	3229	4000
0	2326	3229	4000
0	2312	3229	4000
0	2304	3229	4000
0	2305	3229	4000
0	2296	3229	4000
0	2290	3229	4000
0	2282	3229	4000
0	2284	3229	4000
0	2286	3229	4000
0	2286	3229	4000
0	2293	3229	4000
0	2296	3229	4000
0	2293	3229	4000
0	2298	3229	4000
0	2277	3229	4000
0	2263	3229	4000
0	2258	3229	4000
0	2253	3229	4000
0	2270	3229	4000
0	2285	3229	4000
0	2293	3229	4000
0	2305	3229	4000
0	2314	3229	4000
0	2321	3229	4000
0	2309	3229	4000
0	2297	3229	4000
0	2273	3229	4000
0	2293	3229	4000
0	2336	3229	4000
0	2328	3229	4000
0	2299	3229	4000
0	2291	3229	4000
0	2291	3229	4000
0	2290	3229	4000
0	2268	3229	4000
0	2257	3229	4000
0	2250	3229	4000
0	2240	3229	4000
0	2234	3229	4000
0	2228	3229	4000
0	2224	3229	4000
0	2220	3229	4000
0	2205	3229	4000
0	2214	3229	4000
0	2203	3229	4000
0	2195	3229	4000
0	2196	3229	4000
0	2181	3229	4000
0	2181	3229	4000
0	2180	3229	4000
0	2177	3229	4000
0	2168	3229	4000
0	2168	3229	4000
0	2175	3229	4000
0	2158	3229	4000
0	2160	3229	4000
0	2158	3229	4000
0	2146	3229	4000
0	2160	3229	4000
0	2149	3229	4000
0	2149	3229	4000
0	2146	3229	4000
0	2140	3229	4000
0	2143	3229	4000
0	2134	3229	4000
0	2131	3229	4000
0	2132	3229	4000
0	2121	3229	4000
0	2118	3229	4000
0	2111	3229	4000
0	2111	3229	4000
0	2106	3229	4000
0	2102	3229	4000
0	2106	3229	4000
0	2098	3229	4000
0	2103	3229	4000
0	2096	3229	4000
0	2091	3229	4000
0	2093	3229	4000
0	2089	3229	4000
0	2085	3229	4000
0	2088	3229	4000
0	2078	3229	4000
0	2087	3229	4000
0	2076	3229	4000
0	2081	3229	4000
0	2079	3229	4000
0	2071	3229	4000
0	2076	3229	4000
0	2073	3229	4000
0	2078	3229	4000
0	2070	3229	4000
0	2068	3229	4000
0	2074	3229	4000
0	2069	3229	4000
0	2074	3229	4000
0	2072	3229	4000
0	2065	3229	4000
0	2072	3229	4000
0	2068	3229	4000
0	2065	3229	4000
0	2069	3229	4000
0	2064	3229	4000
0	2062	3229	4000
0	2047	3229	4000
0	2052	3229	4000
0	2048	3229	4000
0	2047	3229	4000
0	2055	3229	4000
0	2056	3229	4000
0	2052	3229	4000
0	2051	3229	4000
0	2044	3229	4000
0	2037	3229	4000
0	2019	3229	4000
0	2011	3229	4000
0	1982	3229	4000
0	1939	3229	4000
0	1931	3229	4000
0	1961	3229	4000
0	1980	3229	4000
0	1947	3229	4000
0	1910	3229	4000
0	1907	3229	4000
0	1889	3229	4000
0	1889	3229	4000
0	1887	3229	4000
0	1884	3229	4000
0	1894	3229	4000
0	1882	3229	4000
0	1888	3229	4000
0	1880	3229	4000
0	1877	3229	4000
0	1892	3229	4000
0	1893	3229	4000
0	1897	3229	4000
0	1898	3229	4000
0	1908	3229	4000
0	1922	3229	4000
0	1924	3229	4000
0	1924	3229	4000
0	1934	3229	4000
0	1934	3229	4000
0	1946	3229	4000
0	1942	3229	4000
0	1952	3229	4000
0	1956	3229	4000
0	1954	3229	4000
0	1961	3229	4000
0	1961	3229	4000
0	1959	3229	4000
0	1965	3229	4000
0	1964	3229	4000
0	1965	3229	4000
0	1969	3229	4000
0	1968	3229	4000
0	1963	3229	4000
0	1962	3229	4000
0	1972	3229	4000
0	1972	3229	4000
0	1961	3229	4000
0	1972	3229	4000
0	1967	3229	4000
0	1973	3229	4000
0	1969	3229	4000
0	1972	3229	4000
0	1983	3229	4000
0	1974	3229	4000
0	1981	3229	4000
0	1984	3229	4000
0	1981	3229	4000
0	1987	3229	4000
0	1982	3229	4000
0	1986	3229	4000
0	1982	3229	4000
0	1988	3229	4000
0	1992	3229	4000
0	1990	3229	4000
0	1985	3229	4000
0	1994	3229	4000
0	1992	3229	4000
0	1994	3229	4000
0	1986	3229	4000
0	1997	3229	4000
0	1987	3229	4000
0	1999	3229	4000
0	1994	3229	4000
0	1997	3229	4000
0	1993	3229	4000
0	1990	3229	4000
0	1988	3229	4000
0	1993	3229	4000
0	1993	3229	4000
0	1994	3229	4000
0	1996	3229	4000
0	2008	3229	4000
0	2009	3229	4000
0	2001	3229	4000
0	2011	3229	4000
0	2010	3229	4000
0	2010	3229	4000
0	2011	3229	4000
0	2010	3229	4000
0	1992	3229	4000
0	1972	3229	4000
0	2022	3229	4000
0	2064	3229	4000
0	2049	3229	4000
0	2033	3229	4000
0	2009	3229	4000
0	2023	3229	4000
0	2017	3229	4000
0	2012	3229	4000
0	2018	3229	4000
0	2005	3229	4000
0	2017	3229	4000
0	2013	3229	4000
0	2009	3229	4000
0	2016	3229	4000
0	2011	3229	4000
0	2009	3229	4000
0	2015	3229	4000
0	2010	3229	4000
0	2011	3229	4000
0	2003	3229	4000
0	2007	3229	4000
0	2008	3229	4000
0	2011	3229	4000
0	2007	3229	4000
0	2004	3229	4000
0	2011	3229	4000
0	2011	3229	4000
0	2009	3229	4000
0	2018	3229	4000
0	2013	3229	4000
0	2018	3229	4000
0	2027	3229	4000
0	2019	3229	4000
0	2022	3229	4000
0	2022	3229	4000
			
