2879
2885
2886
2883
2884
2887
2884
2892
2888
2891
2889
2885
2891
2893
2891
2893
2893
2897
2894
2897
2889
2892
2892
2884
2878
2881
2870
2877
2874
2878
2872
2874
2875
2879
2868
2870
2871
2871
2874
2870
2871
2869
2871
2869
2870
2868
2865
2867
2865
2864
2865
2868
2869
2860
2866
2862
2862
2862
2860
2865
2861
2869
2870
2862
2866
2864
2860
2857
2854
2858
2854
2858
2857
2856
2864
2882
2878
2840
2813
2836
2853
2854
2857
2849
2857
2854
2859
2850
2856
2857
2859
2857
2859
2860
2863
2860
2863
2861
2864
2860
2862
2861
2858
2858
2853
2848
2842
2846
2838
2840
2842
2841
2843
2839
2844
2842
2839
2843
2842
2840
2838
2841
2842
2840
2839
2841
2839
2839
2835
2838
2838
2831
2834
2843
2835
2842
2830
2836
2834
2834
2834
2834
2830
2831
2833
2830
2831
2833
2832
2834
2829
2830
2831
2832
2826
2829
2825
2833
2830
2829
2832
2828
2830
2831
2827
2827
2831
2828
2829
2834
2836
2839
2834
2834
2828
2824
2829
2827
2830
2826
2828
2825
2833
2856
2869
2835
2799
2804
2817
2828
2826
2827
2829
2831
2834
2833
2831
2835
2831
2829
2831
2835
2833
2832
2834
2840
2835
2834
2836
2840
2831
2834
2832
2824
2823
2825
2822
2823
2816
2820
2817
2811
2811
2812
2813
2813
2815
2818
2811
2811
2811
2809
2806
2810
2809
2807
2807
2806
2806
2804
2805
2801
2797
2797
2793
2797
2797
2797
2798
2795
2794
2795
2794
2790
2792
2787
2791
2792
2789
2795
2789
2785
2788
2787
2785
2780
2788
2787
2780
2785
2787
2788
2790
2780
2783
2785
2780
2779
2778
2776
2773
2776
2777
2778
2801
2803
2771
2742
2751
2764
2777
2773
2775
2763
2776
2775
2776
2775
2772
2769
2775
2775
2777
2771
2776
2776
2777
2783
2776
2772
2774
2774
2769
2763
2762
2764
2759
2758
2754
2751
2752
2747
2753
2744
2751
2747
2747
2746
2747
2746
2746
2735
2747
2743
2745
2741
2740
2734
2735
2740
2738
2734
2728
2736
2736
2733
2728
2727
2725
2732
2723
2722
2720
2727
2728
2724
2722
2715
2719
2722
2719
2716
2715
2716
2716
2717
2715
2714
2705
2715
2716
2714
2718
2707
2702
2717
2708
2705
2702
2702
2693
2705
2703
2706
2720
2725
2698
2666
2675
2690
2691
2691
2697
2693
2699
2694
2684
2699
2698
2694
2693
2688
2700
2692
2698
2697
2694
2693
2702
2700
2695
2693
2681
2687
2689
2682
2677
2674
2661
2677
2675
2671
2672
2667
2665
2661
2670
2669
2664
2667
2664
2662
2664
2667
2664
2663
2655
2657
2663
2657
2657
2654
2655
2647
2662
2655
2653
2650
2648
2652
2649
2648
2653
2636
2652
2648
2648
2648
2640
2642
2647
2642
2638
2642
2639
2640
2642
2641
2634
2642
2639
2647
2647
2639
2637
2636
2633
2634
2628
2630
2630
2629
2630
2640
2662
2649
2611
2591
2606
2622
2626
2622
2632
2628
2626
2623
2626
2629
2631
2629
2629
2620
2631
2633
2631
2633
2627
2633
2636
2631
2627
2628
2628
2624
2617
2606
2615
2619
2608
2606
2609
2605
2605
2603
2604
2600
2606
2603
2597
2602
2601
2595
2598
2598
2596
2595
2592
2596
2589
2588
2588
2591
2591
2584
2588
2584
2584
2586
2582
2581
2576
2581
2585
2578
2579
2580
2570
2582
2578
2576
2577
2575
2578
2573
2575
2581
2574
2584
2581
2588
2585
2573
2573
2568
2570
2568
2564
2567
2571
2573
2578
2598
2591
2539
2529
2545
2553
2564
2561
2562
2558
2563
2557
2564
2559
2558
2561
2561
2558
2563
2562
2558
2563
2559
2564
2559
2557
2561
2553
2552
2550
2544
2546
2532
2538
2534
2535
2527
2531
2528
2528
2531
2525
2528
2528
2527
2529
2526
2528
2526
2528
2521
2523
2523
2526
2522
2523
2517
2521
2525
2522
2516
2514
2521
2521
2522
2508
2518
2512
2517
2512
2512
2514
2509
2510
2509
2507
2508
2508
2508
2503
2500
2503
2497
2504
2502
2500
2502
2503
2500
2503
2497
2494
2487
2492
2487
2488
2485
2479
2485
2486
2495
2516
2494
2453
2442
2467
2474
2473
2474
2472
2474
2476
2473
2479
2473
2469
2472
2468
2473
2477
2471
2471
2480
2475
2470
2469
2467
2476
2483
2483
2477
2480
2473
2478
2468
2458
2469
2465
2465
2462
2462
2460
2460
2460
2457
2461
2457
2458
2461
2454
2450
2447
2446
2450
2450
2443
2447
2440
2444
2439
2437
2440
2437
2434
2433
2430
2432
2429
2432
2422
2422
2424
2423
2423
2418
2419
2414
2411
2412
2416
2410
2411
2409
2409
2404
2400
2402
2403
2409
2403
2406
2408
2398
2397
2394
2389
2388
2391
2391
2387
2384
2388
2387
2411
2412
2374
2339
2357
2373
2380
2373
2377
2369
2373
2377
2371
2377
2370
2372
2373
2370
2370
2369
2372
2366
2371
2373
2369
2371
2366
2363
2359
2359
2354
2352
2345
2346
2340
2338
2333
2334
2336
2328
2332
2332
2327
2327
2324
2320
2319
2319
2322
2315
2310
2317
2313
2310
2309
2309
2302
2302
2301
2291
2303
2298
2297
2294
2291
2290
2287
2287
2285
2278
2285
2281
2277
2279
2279
2277
2269
2272
2270
2267
2270
2260
2263
2257
2261
2263
2262
2263
2267
2257
2256
2247
2247
2246
2243
2240
2238
2238
2239
2256
2272
2253
2200
2189
2209
2228
2224
2221
2231
2222
2226
2225
2220
2225
2220
2221
2214
2220
2222
2220
2216
2224
2219
2220
2217
2217
2214
2210
2216
2206
2200
2189
2198
2191
2188
2185
2192
2187
2182
2181
2185
2177
2172
2179
2176
2174
2178
2171
2172
2167
2166
2166
2161
2161
2157
2155
2157
2156
2152
2145
2152
2146
2146
2145
2141
2144
2142
2140
2136
2131
2135
2135
2127
2131
2126
2129
2128
2121
2125
2118
2121
2134
2123
2124
2118
2116
2108
2108
2106
2114
2108
2113
2105
2116
2132
2139
2092
2060
2073
2088
2100
2096
2093
2098
2094
2091
2087
2094
2097
2092
2087
2093
2091
2089
2092
2091
2088
2088
2096
2086
2094
2084
2083
2078
2070
2071
2066
2062
2060
2058
2057
2054
2051
2050
2046
2053
2052
2051
2050
2047
2045
2045
2043
2043
2037
2040
2041
2034
2035
2034
2034
2033
2027
2029
2028
2022
2027
2023
2023
2020
2020
2020
2018
2019
2019
2017
2044
2043
2046
2064
2075
2087
2098
2100
2096
2101
2096
2093
2093
2094
2097
2092
2094
2086
2083
2085
2082
2080
2075
2068
2070
2075
2099
2104
2056
2030
2050
2081
2086
2076
2089
2086
2082
2082
2086
2086
2080
2079
2080
2078
2079
2072
2074
2074
2074
2073
2070
2071
2071
2063
2062
2060
2056
2050
2045
2044
2038
2041
2043
2034
2034
2033
2037
2030
2028
2034
2031
2030
2031
2030
2026
2028
2023
2028
2014
2018
2023
2014
2015
2011
2011
2012
2004
2001
2012
2007
2001
1997
1998
2002
1998
1996
1992
1992
1992
1991
1991
1983
1985
1988
1988
1985
1980
1982
1981
1979
1978
1975
1970
1974
1974
1976
1978
1977
1972
1977
1978
1973
1964
1959
1956
1952
1952
1951
1947
1950
1977
1983
1946
1907
1915
1929
1940
1935
1942
1942
1934
1938
1938
1932
1940
1939
1930
1930
1931
1934
1931
1932
1931
1928
1937
1937
1931
1942
1932
1930
1929
1916
1919
1912
1908
1910
1907
1907
1907
1902
1907
1902
1899
1899
1898
1902
1898
1897
1895
1896
1894
1893
1895
1885
1893
1889
1885
1891
1885
1888
1887
1884
1884
1882
1881
1881
1875
1875
1875
1874
1874
1875
1874
1870
1871
1871
1862
1868
1859
1868
1864
1860
1858
1858
1857
1850
1854
1854
1854
1855
1858
1852
1856
1857
1850
1849
1844
1839
1843
1839
1837
1835
1840
1836
1874
1870
1819
1792
1808
1822
1827
1825
1829
1819
1824
1829
1826
1818
1822
1823
1826
1817
1825
1817
1826
1824
1820
1825
1825
1824
1826
1821
1819
1816
1811
1808
1802
1804
1799
1800
1798
1791
1788
1786
1791
1790
1791
1791
1786
1785
1779
1784
1785
1780
1776
1775
1778
1774
1770
1770
1772
1770
1767
1766
1767
1758
1762
1766
1760
1757
1766
1760
1757
1754
1751
1749
1754
1746
1751
1748
1747
1749
1745
1738
1750
1731
1738
1743
1737
1735
1738
1736
1730
1730
1737
1739
1734
1733
1728
1723
1723
1718
1716
1716
1715
1712
1711
1720
1730
1714
1666
1655
1677
1685
1686
1689
1685
1682
1687
1690
1687
1687
1690
1684
1685
1685
1686
1690
1689
1685
1691
1693
1691
1685
1692
1692
1685
1684
1679
1680
1675
1679
1681
1680
1675
1678
1676
1685
1671
1686
1687
1692
1683
1681
1689
1683
1677
1684
1680
1680
1671
1679
1678
1676
1674
1672
1672
1669
1662
1664
1667
1662
1657
1660
1660
1657
1656
1651
1647
1652
1651
1652
1652
1640
1651
1646
1646
1641
1648
1641
1642
1639
1638
1639
1639
1638
1637
1641
1634
1632
1629
1622
1622
1624
1621
1615
1620
1623
1638
1660
1636
1588
1584
1594
1610
1612
1611
1605
1610
1613
1613
1609
1613
1607
1604
1605
1596
1605
1605
1608
1606
1611
1609
1602
1610
1605
1599
1602
1593
1585
1597
1594
1590
1585
1579
1584
1583
1580
1574
1580
1577
1577
1577
1573
1577
1570
1570
1579
1569
1568
1565
1567
1566
1560
1560
1563
1557
1558
1550
1571
1566
1560
1560
1561
1558
1556
1554
1554
1558
1555
1556
1549
1553
1549
1546
1550
1543
1541
1551
1550
1546
1542
1540
1550
1554
1546
1539
1532
1526
1536
1533
1533
1520
1530
1533
1545
1565
1544
1485
1488
1512
1520
1523
1518
1516
1518
1523
1521
1518
1520
1514
1519
1522
1515
1510
1513
1515
1521
1518
1517
1513
1506
1522
1515
1510
1503
1493
1499
1496
1493
1487
1482
1488
1488
1487
1485
1474
1484
1481
1489
1482
1474
1477
1483
1484
1475
1481
1479
1474
1475
1478
1472
1473
1473
1472
1470
1473
1472
1473
1469
1469
1470
1470
1465
1473
1468
1464
1471
1467
1470
1469
1462
1466
1466
1469
1467
1463
1467
1466
1467
1466
1459
1468
1467
1470
1472
1469
1466
1452
1460
1461
1461
1460
1454
1461
1466
1484
1495
1455
1418
1431
1447
1461
1459
1455
1460
1451
1466
1460
1462
1463
1464
1463
1465
1462
1472
1469
1465
1473
1473
1473
1469
1467
1472
1472
1469
1463
1459
1455
1452
1444
1447
1449
1443
1443
1443
1438
1440
1434
1439
1433
1440
1433
1434
1437
1436
1432
1433
1427
1431
1431
1427
1432
1426
1424
1420
1422
1419
1421
1421
1418
1413
1418
1416
1415
1413
1412
1416
1407
1416
1409
1404
1410
1408
1407
1406
1403
1406
1407
1406
1404
1403
1407
1399
1401
1401
1400
1411
1406
1403
1401
1393
1394
1394
1392
1385
1391
1393
1386
1414
1433
1425
1382
1354
1367
1383
1379
1395
1390
1393
1390
1392
1387
1391
1384
1390
1385
1387
1393
1394
1391
1393
1395
1393
1394
1399
1394
1397
1395
1386
1380
1384
1379
1369
1376
1373
1372
1376
1369
1375
1376
1374
1374
1367
1379
1374
1376
1375
1372
1369
1368
1372
1373
1372
1368
1365
1373
1368
1367
1368
1365
1365
1365
1364
1367
1361
1363
1364
1367
1367
1363
1364
1362
1364
1368
1366
1368
1369
1374
1374
1373
1372
1372
1366
1365
1364
1365
1365
1361
1371
1371
1373
1379
1369
1371
1364
1360
1363
1362
1362
1360
1360
1362
1364
1391
1397
1354
1323
1342
1356
1361
1361
1354
1356
1361
1359
1364
1362
1357
1360
1360
1350
1365
1362
1364
1364
1361
1361
1366
1363
1356
1360
1360
1356
1348
1343
1339
1345
1341
1333
1343
1337
1340
1334
1327
1338
1338
1333
1326
1341
1340
1336
1340
1343
1343
1339
1330
1351
1336
1340
1338
1340
1342
1336
1341
1336
1342
1332
1336
1339
1341
1330
1338
1334
1336
1334
1338
1337
1330
1334
1332
1333
1334
1329
1333
1337
1327
1333
1334
1334
1333
1332
1333
1331
1326
1337
1339
1349
1343
1348
1297
1395
1401
1396
1401
1395
1393
1391
1390
1389
1384
1381
1381
1383
1381
1385
1408
1414
1375
1338
1354
1368
1372
1368
1371
1376
1374
1371
1368
1368
1366
1366
1371
1366
1367
1369
1371
1367
1367
1366
1368
1366
1368
1365
1363
1362
1355
1344
1348
1338
1414
1250
1260
1266
1263
1268
1267
1269
1269
1272
1270
1271
1283
1270
1268
1269
1267
1281
1276
1279
1281
1276
1277
1273
1277
1267
1266
1275
1269
1272
1271
1223
1321
1318
1315
1320
1309
1313
1309
1314
1309
1309
1308
1309
1306
1309
1305
1309
1304
1305
1303
1305
1304
1302
1306
1301
1304
1304
1306
1304
1303
1307
1311
1305
1303
1305
1306
1302
1300
1301
1297
1297
1300
1306
1328
1336
1302
1263
1274
1287
1297
1306
1305
1302
1300
1312
1303
1302
1306
1311
1307
1307
1311
1305
1312
1314
1315
1314
1316
1322
1313
1313
1310
1307
1303
1302
1295
1296
1295
1291
1290
1287
1285
1290
1287
1281
1288
1289
1281
1286
1284
1285
1285
1281
1279
1280
1285
1279
1279
1277
1280
1274
1272
1271
1276
1271
1270
1272
1269
1268
1268
1268
1263
1267
1270
1260
1262
1261
1261
1259
1261
1257
1261
1255
1260
1259
1251
1257
1255
1255
1251
1251
1252
1252
1258
1255
1253
1248
1251
1242
1248
1247
1236
1243
1243
1243
1252
1275
1268
1219
1189
1209
1215
1224
1226
1224
1227
1228
1227
1224
1230
1230
1228
1235
1228
1233
1228
1231
1232
1228
1232
1231
1228
1230
1226
1224
1218
1216
1212
1205
1212
1200
1198
1203
1200
1197
1192
1192
1199
1190
1195
1198
1196
1188
1186
1200
1197
1195
1186
1187
1188
1192
1185
1189
1186
1184
1186
1186
1180
1185
1181
1181
1180
1177
1177
1174
1170
1179
1178
1175
1175
1177
1175
1180
1178
1171
1167
1180
1175
1174
1164
1170
1177
1169
1166
1171
1174
1175
1166
1182
1174
1165
1174
1171
1169
1163
1165
1171
1163
1164
1151
1188
1201
1181
1137
1131
1143
1161
1160
1155
1165
1161
1166
1165
1162
1164
1164
1159
1163
1160
1163
1167
1165
1166
1167
1168
1165
1163
1155
1165
1160
1147
1154
1146
1143
1141
1136
1132
1134
1136
1131
1130
1134
1132
1133
1125
1133
1130
1131
1131
1132
1129
1124
1128
1127
1125
1123
1123
1118
1165
1032
1043
1048
1047
1047
1061
1063
1073
1067
1065
1067
1064
1067
1008
1109
1118
1114
1116
1114
1106
1106
1108
1107
1106
1104
1103
1101
1107
1096
1103
1102
1099
1104
1109
1110
1104
1096
1103
1099
1092
1092
1097
1097
1092
1093
1099
1123
1134
1081
1048
1064
1080
1084
1086
1089
1085
1092
1091
1085
1085
1089
1090
1086
1088
1089
1091
1084
1090
1090
1097
1089
1089
1095
1088
1086
1081
1078
1073
1068
1067
1068
1064
1068
1063
1059
1060
1064
1058
1050
1062
1060
1062
1058
1061
1056
1061
1056
1050
1059
1060
1051
1057
1055
1055
1051
1045
1047
1053
1049
1054
1053
1047
1049
1044
1050
1047
1048
1045
1045
1048
1043
1042
1048
1044
1041
1044
1044
1041
1038
1035
1044
1040
1037
1036
1040
1037
1031
1041
1039
1035
1036
1030
1030
1030
1027
1029
1025
1022
1019
1027
1046
1058
1031
989
995
1009
1017
1015
1020
1017
1012
1021
1020
1019
1022
1021
1020
1015
1020
1018
1028
1019
1023
1027
1027
1023
1019
1020
1017
1017
1013
1006
1007
1002
1003
998
995
994
992
993
991
994
986
988
992
989
988
990
984
987
990
985
986
989
984
982
978
986
975
974
976
978
977
976
976
970
976
975
968
969
975
969
967
969
969
966
968
968
959
965
970
965
967
956
962
961
961
959
952
965
962
958
957
956
954
957
954
959
961
957
956
953
951
950
943
949
944
947
943
947
960
980
960
913
908
931
939
942
940
939
942
942
941
937
936
939
937
938
941
940
938
939
944
941
937
942
934
942
939
932
929
929
923
916
912
916
908
915
909
908
907
907
908
902
905
906
902
904
900
903
901
902
904
894
891
896
895
897
885
896
895
887
889
890
886
884
884
885
888
886
883
883
880
879
879
882
871
881
877
876
876
878
874
872
871
871
869
869
872
873
870
872
878
867
868
863
860
863
860
860
863
861
863
870
894
895
844
825
833
852
861
855
856
862
859
862
863
859
861
864
864
862
869
866
866
873
873
871
873
869
873
874
871
867
861
858
856
847
850
845
852
844
846
844
845
844
846
839
844
844
848
846
845
847
842
844
848
847
839
841
844
845
845
848
836
845
843
845
844
837
847
845
839
841
844
845
838
837
842
847
845
841
838
839
841
847
844
838
844
843
841
859
851
843
850
849
846
847
841
835
843
848
852
860
887
878
821
813
834
848
853
846
845
856
859
860
855
851
858
859
865
861
861
854
863
869
869
867
869
864
867
871
870
866
855
858
858
859
850
842
850
855
851
847
842
855
848
848
841
847
854
849
850
845
849
850
849
847
851
843
846
846
851
842
844
846
844
848
844
843
839
846
847
844
841
848
843
843
839
842
841
839
845
843
844
842
837
834
839
839
839
838
833
844
843
847
846
839
834
837
838
836
832
837
832
834
833
868
876
836
790
808
825
831
828
837
834
837
832
835
839
833
828
846
841
844
843
844
847
850
850
849
850
849
849
847
848
847
837
836
833
830
829
827
825
834
829
826
831
828
827
829
828
828
833
825
831
832
831
833
826
827
828
826
829
826
825
825
825
823
824
823
818
821
818
813
814
824
815
816
811
808
811
814
810
810
812
812
814
813
811
811
808
801
805
805
801
802
803
802
819
833
833
793
766
781
801
799
805
808
805
808
813
806
811
807
803
810
811
810
806
813
815
816
816
815
821
817
813
812
813
803
801
806
792
795
788
796
789
788
790
789
790
786
784
792
788
785
786
791
789
783
785
782
779
778
783
777
777
776
779
775
774
778
777
772
772
775
775
768
772
766
770
772
768
766
768
766
768
763
761
764
765
757
763
762
759
760
759
759
760
754
764
757
761
764
762
761
758
755
754
746
748
756
749
747
756
770
785
753
717
713
735
747
744
747
743
750
742
749
745
743
742
742
748
746
749
745
743
745
746
745
745
738
748
742
738
731
725
722
725
715
718
713
717
712
705
709
706
705
697
705
701
707
697
701
701
699
695
692
694
687
690
689
682
691
684
683
680
683
672
677
676
673
675
668
667
668
664
660
661
661
657
651
658
655
649
646
647
646
637
640
641
638
637
632
627
631
627
617
627
624
620
615
616
619
616
611
621
614
609
604
601
597
595
595
587
587
590
597
617
617
573
536
559
566
570
569
568
568
570
569
554
565
563
561
559
563
556
558
558
552
555
560
550
549
554
548
542
543
538
530
527
518
517
526
517
517
514
514
509
507
503
501
509
508
501
503
496
497
496
494
491
496
488
489
485
490
482
476
476
482
476
481
474
474
469
472
461
465
469
458
460
462
457
458
450
448
454
448
454
446
447
448
446
442
445
446
441
447
443
443
443
442
442
438
442
437
432
436
428
429
430
429
428
442
465
449
406
393
414
418
428
425
424
427
427
425
422
423
420
420
412
421
421
422
420
416
419
422
423
419
417
422
422
419
411
409
400
401
395
396
392
390
385
389
434
305
308
313
313
319
316
318
318
317
323
333
326
334
338
333
328
329
323
324
324
335
307
303
296
306
302
290
299
295
297
293
296
291
310
308
297
307
301
297
296
298
294
286
291
291
281
278
268
266
272
271
268
261
259
260
253
249
250
251
258
259
197
342
343
305
271
270
287
293
283
282
281
322
196
197
198
205
206
200
204
206
210
213
210
212
215
217
214
214
208
208
207
200
204
197
184
177
183
183
176
183
191
188
189
189
201
201
196
205
204
212
214
209
210
212
208
212
209
215
215
220
219
219
220
226
235
231
235
244
242
247
248
249
251
255
253
261
262
260
264
260
260
267
265
275
277
276
279
280
275
279
277
286
287
287
294
299
317
341
310
270
269
294
298
305
306
315
308
318
322
323
328
326
326
326
336
334
342
344
346
355
350
352
348
356
356
356
353
349
337
343
340
338
342
351
348
349
354
354
354
357
353
355
363
359
356
364
358
357
355
359
349
347
349
352
349
350
354
357
357
354
353
356
357
351
357
363
356
356
360
358
354
352
353
349
353
354
350
355
355
353
354
355
355
350
355
340
346
351
351
354
359
381
375
332
305
319
339
336
335
338
339
337
341
336
340
336
336
337
340
339
341
340
342
337
340
336
338
335
334
324
319
317
312
311
310
310
305
304
306
308
302
305
307
303
304
306
301
303
303
299
303
298
297
294
296
293
288
289
296
289
285
285
293
290
285
285
290
289
285
290
282
282
282
278
280
275
271
271
270
273
270
271
272
275
271
273
280
276
272
272
269
266
267
262
261
259
255
254
263
281
280
235
209
223
243
247
247
251
252
253
257
252
255
253
259
257
255
262
260
264
259
254
258
262
261
260
260
259
254
260
253
250
250
251
248
247
253
252
246
252
246
245
244
244
243
235
243
238
241
242
243
243
242
244
245
244
245
251
250
246
249
243
248
251
247
246
244
247
242
245
230
236
241
238
237
245
241
244
240
251
246
245
249
245
246
243
242
242
238
243
236
245
268
270
226
190
204
224
229
235
229
233
234
233
234
238
234
237
238
241
242
241
244
240
242
241
235
237
231
234
245
237
240
230
230
226
222
226
215
225
227
222
220
215
216
215
211
209
211
210
198
197
200
198
197
197
188
192
189
194
191
188
188
187
184
184
189
190
185
185
179
178
177
176
179
182
173
174
180
173
174
178
182
178
180
180
181
190
185
187
200
195
201
197
197
198
190
198
188
194
192
193
192
197
217
231
226
188
169
194
212
212
216
223
224
224
228
226
227
230
233
233
241
241
242
243
249
255
257
266
272
268
273
273
277
278
277
276
277
276
279
279
279
276
278
283
281
282
288
290
289
289
298
290
297
304
305
301
299
304
307
308
302
305
311
307
307
311
307
302
308
311
312
313
308
316
311
319
322
319
323
321
326
326
326
331
328
332
328
330
335
332
336
333
333
333
323
328
329
325
326
328
331
335
367
373
341
305
311
332
339
339
338
341
338
338
344
337
339
335
346
322
328
323
326
333
337
332
343
347
349
344
344
343
339
336
332
328
322
317
319
314
313
317
316
317
313
296
298
296
298
299
307
307
308
313
305
307
304
301
305
305
301
299
301
300
297
286
286
289
283
287
283
284
284
286
290
291
294
297
296
298
297
293
289
281
286
284
275
278
269
275
278
299
307
279
240
249
271
280
280
279
284
286
283
288
284
281
281
281
278
284
281
277
285
289
284
296
295
304
297
291
291
291
286
284
284
277
276
269
273
270
266
260
259
254
261
259
252
255
259
258
260
253
260
258
255
253
253
251
251
247
249
246
241
238
242
240
234
235
232
234
231
233
235
230
237
230
230
231
227
230
231
231
224
226
223
222
220
214
224
218
226
220
224
222
217
217
220
219
224
224
228
234
252
269
230
194
202
219
228
231
234
232
237
240
244
246
244
249
255
261
261
269
270
279
281
288
288
295
302
299
301
303
298
306
305
306
303
308
316
315
320
329
330
334
336
334
354
357
358
367
370
368
376
379
383
387
384
393
392
401
392
392
394
397
406
405
409
411
417
416
446
450
448
458
459
464
466
469
474
472
481
481
485
489
487
494
505
505
507
508
509
511
514
512
517
520
527
528
531
543
570
567
532
551
589
602
614
620
616
619
624
626
629
634
636
638
640
651
654
654
657
661
666
671
674
678
677
685
683
684
684
684
680
683
676
680
687
679
685
690
691
694
696
695
694
701
696
697
701
702
704
705
712
707
710
711
712
711
710
718
721
717
718
719
719
719
722
724
727
728
732
723
731
727
729
729
731
728
728
728
726
730
730
727
730
729
731
724
728
732
729
730
737
733
732
728
723
723
726
719
722
722
721
726
738
756
731
695
687
706
714
722
715
718
717
712
718
714
717
714
713
709
717
717
717
713
713
717
711
719
719
714
713
711
707
701
705
697
695
693
683
695
691
691
688
688
685
690
685
682
689
689
685
683
685
682
680
677
685
676
674
678
678
673
673
677
674
666
669
667
666
668
664
662
661
661
659
659
660
652
661
661
652
660
657
656
653
655
656
655
657
659
661
649
650
647
646
647
649
642
642
641
652
668
685
656
618
614
627
637
641
646
646
632
626
634
629
630
629
625
633
629
631
634
638
638
639
636
641
637
638
636
632
631
623
621
612
621
611
600
611
612
608
607
597
601
607
606
602
607
608
604
607
609
602
602
603
600
596
601
594
593
595
591
586
591
586
582
588
581
580
585
587
584
589
586
583
583
579
568
573
577
564
566
568
570
567
588
593
564
532
536
550
558
564
560
562
559
563
562
562
561
565
561
560
565
561
558
559
555
565
568
560
558
560
558
553
547
545
543
543
537
534
532
541
532
531
528
529
528
528
522
530
526
524
526
524
517
522
520
523
517
519
525
522
518
515
518
523
519
516
513
516
514
511
515
515
511
513
508
520
517
513
513
513
508
506
511
510
500
506
505
509
517
536
532
485
467
487
501
501
502
499
508
506
506
502
509
509
509
510
515
515
515
517
522
518
515
528
526
523
523
522
516
507
510
510
508
502
506
503
506
510
509
507
511
513
516
514
513
518
519
514
518
519
516
515
516
516
513
514
513
512
518
517
519
517
522
520
516
525
524
524
526
528
527
524
525
526
529
530
528
529
540
533
540
530
529
529
531
538
540
532
537
548
556
580
556
523
514
530
540
546
545
553
549
555
550
553
551
549
558
556
560
564
566
568
570
574
574
579
578
581
576
576
569
574
565
565
565
561
560
559
560
555
556
561
567
564
564
568
567
568
570
565
567
570
567
569
568
566
569
566
564
560
566
566
563
562
568
565
568
570
567
569
570
572
571
580
572
576
573
572
578
576
565
570
576
574
576
583
581
580
576
579
579
574
574
576
579
574
574
588
598
611
585
547
550
573
578
577
573
579
578
581
584
577
582
588
584
582
590
588
590
589
590
594
598
594
595
594
593
588
586
584
581
578
573
577
577
566
577
576
581
576
574
579
574
579
583
582
579
586
581
579
577
582
572
573
576
582
574
574
576
571
568
582
572
580
572
578
585
582
581
582
581
579
578
571
577
580
576
570
573
572
569
572
568
568
573
582
573
577
574
578
579
581
579
580
576
574
569
572
567
568
565
558
573
572
596
601
559
530
549
563
570
564
573
573
570
571
573
571
574
567
572
570
572
569
566
572
581
576
569
581
574
578
577
574
574
568
569
568
558
563
562
560
561
558
560
551
552
554
553
551
556
555
552
558
555
551
550
560
556
553
551
554
555
553
552
549
555
546
552
547
544
550
549
549
543
546
547
544
550
548
547
551
549
550
552
552
553
554
560
554
552
544
543
548
545
547
548
550
550
554
584
582
540
519
533
549
554
561
560
555
554
560
563
563
555
559
563
558
562
566
565
566
567
574
577
577
569
577
568
568
569
566
561
562
560
554
560
559
554
553
553
559
558
554
558
559
561
565
554
559
565
561
564
563
556
568
564
553
565
560
567
561
555
554
561
555
563
560
562
561
559
558
559
565
560
563
562
569
559
566
571
568
562
565
566
570
568
569
563
560
564
561
561
560
564
561
568
582
597
578
533
537
559
571
568
567
567
569
572
567
571
568
572
571
568
572
578
579
573
591
588
588
587
591
591
588
593
588
584
574
582
578
572
577
572
569
569
571
571
576
577
576
585
578
581
577
584
586
590
579
583
589
585
584
584
583
580
583
581
580
581
579
584
583
579
583
586
588
586
582
586
584
587
585
584
586
587
580
583
585
585
576
580
579
582
579
579
579
587
595
585
583
584
580
577
581
580
579
580
582
589
611
607
566
537
558
581
582
582
580
582
584
581
584
584
583
588
594
593
596
593
598
597
597
594
600
606
598
600
599
597
590
587
585
583
583
587
588
580
585
588
588
587
589
585
595
590
594
596
587
586
589
584
586
579
589
586
579
580
583
581
580
579
580
583
590
588
590
595
589
581
583
585
584
579
581
578
581
580
580
605
613
573
544
556
563
574
576
579
583
585
587
582
581
587
588
584
585
590
593
591
584
589
594
587
589
593
590
589
587
580
576
580
565
567
565
565
565
573
567
565
568
570
567
574
574
572
573
578
573
573
577
578
573
576
581
579
580
582
584
589
589
589
593
591
589
580
583
581
579
577
576
570
578
573
588
607
601
567
546
567
579
591
590
590
591
589
589
595
596
580
590
591
586
587
595
594
593
599
607
601
603
605
606
605
611
605
599
601
595
596
595
589
588
591
587
589
588
590
586
591
594
595
596
590
593
597
597
596
597
598
595
595
591
589
587
590
585
583
584
579
584
588
588
585
593
597
594
585
588
593
586
596
594
587
596
600
616
627
590
554
561
580
591
589
591
596
590
596
589
599
598
602
591
596
600
598
601
603
602
603
606
601
605
598
605
603
598
590
591
586
586
588
582
579
585
582
581
582
576
576
582
579
573
581
577
578
574
578
573
570
567
572
573
573
570
572
564
570
570
566
564
566
564
567
566
565
560
558
564
563
563
558
554
561
562
562
555
555
558
556
556
554
556
552
554
552
556
554
550
556
558
559
556
553
558
560
559
558
563
559
558
560
559
553
552
559
555
556
559
577
591
568
530
529
552
564
565
563
567
569
567
569
573
573
572
577
576
579
580
585
584
581
591
594
590
589
597
590
590
593
588
591
588
585
586
589
587
580
589
589
594
596
590
594
593
595
590
595
594
597
601
595
601
597
601
594
593
599
599
593
602
604
596
599
598
594
599
598
607
603
600
602
606
601
604
603
609
603
611
609
612
612
614
607
611
606
612
614
614
619
623
626
622
626
629
618
611
625
622
615
621
618
623
639
662
643
594
590
612
622
625
624
632
631
626
633
635
629
631
638
640
638
638
635
640
639
640
637
638
640
648
642
643
640
635
631
633
631
630
627
629
632
633
629
624
633
633
626
630
632
637
632
630
631
631
627
630
630
629
631
630
625
630
627
629
626
631
634
627
623
633
631
623
631
632
635
639
639
638
636
634
633
626
631
633
635
631
634
639
652
669
653
605
587
623
633
640
637
635
639
647
639
639
641
638
639
640
643
648
648
644
652
652
650
650
650
671
666
670
669
667
659
659
651
653
649
651
659
654
651
653
653
655
653
655
654
658
657
656
657
653
657
657
654
654
657
652
653
651
656
657
652
651
657
654
657
653
658
665
664
661
654
659
654
654
651
652
655
652
655
665
684
689
648
614
635
642
653
651
655
655
656
660
655
658
659
659
657
657
661
664
667
661
668
665
669
670
667
668
668
665
661
659
656
660
656
653
652
652
655
652
654
655
652
655
652
655
659
654
656
655
657
656
656
656
662
661
665
666
668
661
662
657
654
665
661
656
658
654
660
665
687
692
662
631
639
652
659
662
666
664
665
671
670
671
669
668
676
671
671
675
680
680
680
682
687
688
684
679
687
683
675
679
670
665
668
666
673
669
668
672
667
666
669
675
672
673
674
676
677
679
671
675
678
675
673
673
678
678
680
683
680
682
677
677
686
676
694
692
689
693
685
685
680
684
677
688
683
683
694
705
719
693
652
665
677
688
695
688
695
695
697
695
699
699
701
696
703
702
711
703
710
720
708
715
723
723
718
723
720
714
711
708
704
707
706
703
708
706
706
704
710
713
708
710
713
713
711
712
719
719
712
714
710
711
712
709
717
708
715
718
712
722
713
720
724
724
723
726
726
728
728
733
729
729
735
729
736
732
736
730
728
725
722
722
731
726
723
737
738
759
764
742
703
713
728
732
743
733
739
740
739
736
743
739
738
742
737
747
746
748
749
754
755
763
759
762
763
758
762
755
750
750
746
741
744
736
742
738
742
739
741
738
746
745
740
749
750
749
746
748
748
746
752
748
744
747
755
750
744
745
749
743
747
742
748
746
747
744
746
748
748
747
743
752
749
745
753
746
749
736
743
744
743
739
745
743
748
747
748
758
752
753
750
749
745
750
752
746
748
753
759
777
763
733
707
729
742
752
752
747
755
760
758
764
763
762
762
763
768
767
766
771
772
771
768
766
771
774
771
767
772
767
766
762
760
764
762
762
758
762
760
761
770
761
761
759
756
760
759
757
750
761
763
759
761
755
760
762
755
756
762
760
761
762
762
754
760
758
757
753
759
756
758
752
761
765
764
760
764
766
768
761
765
764
768
767
767
768
762
766
770
767
766
772
770
767
772
768
768
767
767
766
765
758
768
774
798
799
759
732
744
759
760
767
766
765
765
762
772
772
773
770
772
768
775
777
777
772
783
778
783
780
783
789
782
780
780
775
773
776
770
778
778
775
777
774
779
778
783
779
791
792
788
788
794
795
798
799
806
797
808
813
811
816
820
820
817
829
828
828
832
836
844
847
845
849
853
858
852
861
867
870
870
872
882
879
879
887
898
901
901
906
903
907
904
904
908
911
917
918
919
927
943
962
955
914
904
918
940
949
944
954
956
957
967
966
971
975
970
978
979
977
993
996
995
996
1003
1008
1007
1009
1009
1013
1007
1006
1011
1002
1003
1001
1001
1006
1006
1009
1005
1009
1011
1015
1012
1012
1022
1022
1018
1024
1021
1019
1024
1023
1019
1022
1024
1022
1023
1029
1021
1029
1029
1030
1032
1019
1028
1036
1032
1031
1029
1032
1031
1027
1031
1036
1038
1032
1032
1037
1038
1038
1039
1043
1038
1038
1033
1037
1031
1032
1028
1030
1026
1039
1057
1062
1029
994
1001
1020
1029
1025
1027
1031
1030
1029
1029
1033
1027
1031
1028
1031
1028
1036
1037
1029
1036
1036
1033
1039
1027
1038
1036
1029
1029
1022
1020
1018
1017
1011
1012
1014
1015
1007
1008
1005
1007
1008
1006
1010
1004
1008
1002
1000
998
1003
1000
1007
1000
995
1001
1000
992
994
997
996
998
996
991
992
995
998
994
994
990
993
990
988
993
980
992
989
991
993
987
986
989
989
984
979
978
979
978
976
973
973
978
982
1004
998
945
925
953
961
967
964
965
973
966
965
961
964
965
968
961
965
965
964
966
965
965
967
970
964
966
962
958
956
956
940
949
947
939
938
938
938
933
937
932
937
927
933
930
931
930
927
926
930
924
922
918
919
917
921
917
911
915
913
907
900
912
908
901
901
906
905
903
897
903
905
908
904
911
907
911
911
906
909
909
899
900
902
904
903
901
904
911
935
932
882
861
871
885
894
909
844
975
1099
849
844
915
925
957
960
943
958
854
1064
1004
1057
993
1018
977
914
934
944
942
932
936
933
868
960
938
940
932
935
931
975
936
916
895
891
940
944
948
938
948
955
937
952
943
951
945
949
947
951
957
943
962
951
944
948
953
943
944
945
951
953
944
938
925
929
932
927
931
927
930
931
930
951
960
922
888
899
918
924
920
926
926
926
920
933
932
927
925
925
919
929
936
937
945
938
942
943
938
948
948
947
936
944
934
935
939
924
931
929
926
920
921
924
923
921
922
918
919
920
919
919
921
921
914
916
918
916
916
920
915
918
912
918
918
915
922
918
924
925
917
917
914
913
911
912
905
909
912
912
934
950
927
866
873
898
903
912
913
912
909
914
911
912
917
916
918
915
918
924
924
924
934
937
934
939
943
949
944
951
955
952
958
954
960
969
969
975
980
994
991
1003
1014
1021
1032
1040
1036
1054
1064
1068
1083
1089
1096
1115
1125
1131
1143
1148
1164
1179
1190
1203
1208
1223
1237
1242
1255
1261
1270
1288
1301
1313
1316
1327
1349
1346
1365
1375
1378
1390
1395
1409
1412
1418
1422
1431
1445
1453
1460
1487
1495
1471
1452
1462
1485
1498
1513
1518
1514
1523
1537
1538
1546
1553
1558
1566
1567
1567
1579
1581
1592
1597
1601
1597
1604
1614
1613
1618
1618
1612
1614
1624
1622
1616
1624
1620
1622
1632
1626
1634
1639
1634
1645
1647
1646
1652
1654
1647
1661
1660
1661
1666
1666
1664
1664
1668
1667
1672
1664
1665
1674
1662
1672
1673
1666
1668
1672
1667
1672
1671
1664
1667
1674
1669
1673
1672
1667
1660
1668
1668
1669
1662
1663
1664
1663
1662
1658
1657
1650
1665
1654
1652
1649
1652
1652
1656
1658
1654
1646
1646
1648
1645
1641
1633
1629
1642
1636
1637
1651
1667
1629
1596
1606
1614
1621
1625
1624
1620
1616
1612
1627
1624
1621
1613
1618
1616
1619
1610
1605
1601
1608
1610
1606
1607
1597
1604
1597
1591
1590
1589
1578
1574
1566
1571
1567
1560
1561
1550
1556
1558
1551
1549
1551
1542
1552
1548
1545
1543
1539
1540
1539
1533
1537
1526
1524
1530
1527
1521
1517
1516
1518
1518
1517
1509
1510
1508
1510
1508
1493
1498
1503
1499
1496
1491
1490
1485
1489
1489
1484
1470
1482
1481
1474
1477
1472
1466
1472
1466
1467
1463
1464
1464
1460
1464
1455
1449
1444
1431
1448
1440
1438
1438
1432
1453
1462
1429
1390
1382
1420
1420
1418
1420
1414
1412
1417
1415
1410
1413
1412
1404
1407
1414
1406
1404
1413
1407
1410
1410
1411
1411
1408
1407
1406
1406
1401
1385
1397
1390
1381
1390
1383
1382
1380
1383
1384
1379
1373
1380
1380
1377
1374
1379
1376
1375
1372
1369
1371
1368
1371
1363
1362
1372
1365
1363
1361
1359
1360
1360
1362
1357
1348
1350
1356
1360
1358
1349
1354
1351
1354
1347
1353
1349
1353
1346
1344
1347
1349
1344
1339
1344
1344
1340
1341
1342
1344
1346
1345
1340
1345
1343
1337
1334
1339
1331
1333
1331
1330
1328
1340
1362
1360
1320
1289
1313
1323
1324
1329
1322
1326
1331
1332
1327
1327
1330
1328
1330
1329
1327
1331
1332
1332
1337
1332
1332
1336
1333
1336
1331
1334
1329
1323
1323
1322
1320
1319
1315
1316
1322
1316
1311
1321
1313
1315
1318
1315
1318
1323
1316
1314
1308
1308
1307
1309
1306
1306
1304
1303
1303
1300
1297
1300
1302
1294
1296
1305
1298
1296
1296
1295
1294
1291
1286
1291
1296
1296
1284
1289
1293
1291
1286
1280
1283
1290
1290
1288
1288
1285
1292
1291
1278
1271
1284
1279
1280
1277
1274
1283
1293
1316
1291
1243
1242
1263
1278
1275
1275
1278
1277
1278
1275
1276
1280
1280
1275
1277
1277
1284
1281
1278
1284
1288
1288
1284
1287
1284
1286
1281
1284
1278
1278
1269
1275
1269
1271
1266
1270
1260
1263
1262
1272
1265
1262
1261
1271
1266
1260
1268
1263
1267
1262
1260
1266
1265
1262
1259
1261
1263
1263
1255
1258
1259
1259
1255
1259
1255
1253
1257
1258
1256
1249
1250
1257
1251
1257
1251
1242
1249
1248
1253
1244
1245
1248
1250
1250
1243
1250
1255
1252
1242
1241
1241
1243
1244
1238
1234
1243
1244
1254
1275
1260
1217
1207
1223
1244
1239
1243
1245
1243
1242
1244
1243
1245
1247
1245
1250
1247
1250
1252
1251
1257
1255
1255
1255
1261
1258
1258
1253
1258
1250
1249
1248
1242
1247
1239
1245
1239
1241
1240
1240
1244
1247
1237
1244
1242
1242
1249
1247
1245
1245
1245
1244
1247
1247
1244
1248
1245
1248
1249
1243
1247
1249
1249
1247
1250
1252
1251
1244
1243
1250
1248
1247
1249
1249
1251
1249
1245
1248
1249
1252
1249
1249
1252
1249
1249
1255
1250
1253
1260
1257
1256
1251
1251
1248
1257
1245
1251
1257
1251
1255
1280
1291
1261
1223
1223
1245
1253
1256
1258
1267
1263
1255
1263
1265
1262
1269
1273
1268
1270
1275
1272
1269
1289
1278
1283
1285
1286
1286
1286
1284
1280
1281
1278
1276
1281
1274
1269
1271
1275
1273
1277
1275
1274
1285
1284
1274
1281
1280
1276
1278
1281
1278
1283
1277
1284
1281
1277
1283
1283
1277
1276
1279
1284
1278
1280
1280
1276
1277
1279
1273
1280
1281
1278
1274
1270
1277
1276
1273
1272
1275
1274
1275
1278
1275
1268
1283
1280
1281
1283
1278
1277
1277
1270
1274
1274
1276
1279
1293
1309
1290
1256
1245
1268
1276
1285
1287
1286
1285
1286
1286
1290
1287
1289
1292
1295
1291
1298
1303
1296
1295
1305
1306
1305
1306
1311
1308
1302
1304
1298
1295
1300
1287
1293
1291
1293
1287
1291
1293
1292
1291
1288
1292
1288
1290
1297
1295
1292
1295
1295
1291
1292
1292
1289
1292
1296
1293
1292
1291
1294
1293
1298
1296
1298
1294
1300
1300
1298
1298
1300
1295
1298
1295
1297
1298
1298
1303
1295
1306
1304
1306
1310
1304
1302
1298
1302
1303
1295
1301
1303
1303
1321
1336
1328
1279
1267
1289
1296
1301
1306
1309
1310
1313
1315
1315
1313
1314
1313
1320
1316
1322
1320
1326
1328
1327
1326
1322
1327
1329
1330
1331
1326
1322
1318
1319
1314
1311
1310
1310
1312
1309
1316
1312
1312
1312
1320
1319
1315
1313
1311
1318
1311
1313
1324
1312
1314
1323
1309
1322
1318
1312
1319
1318
1318
1320
1322
1319
1322
1319
1320
1322
1320
1322
1324
1320
1324
1319
1322
1322
1325
1321
1321
1323
1325
1320
1327
1332
1330
1333
1329
1324
1327
1324
1320
1323
1321
1324
1326
1321
1336
1353
1348
1305
1291
1307
1320
1326
1326
1323
1323
1328
1322
1326
1334
1329
1328
1337
1331
1334
1337
1341
1343
1339
1351
1355
1353
1356
1357
1365
1355
1358
1360
1360
1364
1363
1356
1367
1378
1372
1382
1379
1386
1395
1398
1401
1404
1411
1421
1427
1430
1435
1444
1449
1456
1463
1466
1481
1483
1491
1501
1500
1509
1522
1527
1533
1537
1551
1558
1561
1573
1576
1590
1593
1604
1609
1620
1623
1630
1643
1644
1646
1662
1667
1682
1680
1694
1703
1707
1708
1716
1718
1723
1731
1736
1744
1748
1757
1767
1783
1814
1773
1746
1766
1787
1804
1804
1805
1818
1827
1828
1832
1842
1842
1845
1851
1852
1868
1866
1871
1877
1880
1890
1894
1896
1896
1906
1911
1906
1910
1910
1912
1911
1908
1904
1922
1917
1922
1917
1926
1935
1934
1932
1938
1939
1945
1947
1949
1950
1959
1962
1955
1964
1968
1972
1967
1974
1969
1977
1983
1977
1981
1988
1987
1993
1991
1991
1999
1996
1997
2003
2008
2002
2005
2012
2011
2013
2017
2017
2019
2016
2029
2029
2023
2017
2023
2018
2022
2018
2022
2016
2027
2030
2039
2062
2035
1996
1995
2010
2023
2019
2022
2027
2025
2019
2021
2021
2025
2023
2023
2021
2016
2018
2021
2021
2017
2021
2018
2018
2021
2019
2010
2004
2005
2004
2001
1985
1981
1985
1984
1979
1975
1973
1976
1969
1973
1969
1967
1958
1972
1964
1961
1959
1956
1960
1958
1951
1949
1943
1955
1942
1948
1941
1939
1937
1939
1935
1929
1932
1931
1934
1921
1923
1919
1923
1921
1919
1922
1917
1908
1916
1915
1909
1899
1905
1905
1901
1899
1896
1895
1889
1889
1882
1888
1884
1877
1882
1878
1874
1869
1862
1859
1858
1852
1851
1846
1848
1844
1850
1869
1868
1825
1798
1814
1821
1829
1828
1820
1822
1819
1819
1826
1817
1806
1814
1815
1807
1814
1811
1811
1814
1816
1815
1800
1807
1811
1805
1801
1798
1793
1789
1780
1783
1782
1779
1776
1775
1773
1772
1769
1764
1766
1761
1774
1768
1766
1765
1764
1758
1760
1758
1754
1756
1753
1753
1753
1750
1747
1742
1740
1746
1739
1740
1740
1738
1737
1734
1734
1733
1727
1729
1723
1727
1727
1723
1725
1717
1720
1719
1716
1710
1712
1707
1707
1716
1707
1703
1705
1698
1700
1697
1696
1696
1694
1690
1697
1696
1697
1692
1691
1687
1675
1679
1680
1675
1676
1674
1671
1683
1694
1711
1671
1637
1643
1659
1659
1666
1664
1665
1665
1662
1660
1665
1660
1662
1664
1664
1665
1659
1662
1664
1663
1665
1661
1662
1664
1661
1662
1655
1650
1647
1641
1638
1632
1639
1634
1630
1626
1629
1629
1625
1622
1624
1621
1624
1621
1619
1625
1615
1616
1619
1615
1616
1612
1613
1612
1606
1612
1607
1611
1606
1607
1604
1602
1604
1605
1597
1597
1603
1597
1602
1592
1599
1593
1592
1593
1594
1587
1596
1593
1589
1585
1591
1584
1585
1584
1586
1587
1589
1587
1592
1591
1592
1589
1592
1591
1587
1594
1597
1597
1601
1611
1626
1645
1669
1633
1603
1620
1639
1675
1707
1729
1814
1884
1996
2045
2026
1995
1978
1965
1935
1966
1993
1981
1997
2045
2068
2120
2116
2117
2110
1793
1633
1619
1596
1590
1496
1493
1486
1519
1538
1555
1567
1609
1627
1647
1665
1667
1664
1658
1672
1676
1655
1622
1602
1623
1641
1685
1694
1705
1710
1704
1709
1700
1689
1683
1682
1679
1673
1658
1637
1624
1604
1581
1575
1604
1604
1604
1608
1611
1618
1619
1619
1622
1630
1628
1624
1633
1637
1632
1636
1643
1641
1644
1657
1652
1662
1680
1675
1685
1697
1704
1713
1716
1718
1717
1744
1966
1974
1979
2002
2007
1980
1940
1945
1965
1968
1968
1973
1978
1979
1976
1976
1976
1972
1972
1975
1984
1985
1991
1992
1993
1995
2002
2000
2002
2009
2009
1996
2013
2011
2009
2011
2009
2009
2012
2013
2016
2012
2014
2026
2028
2031
2029
2040
2038
2041
2050
2048
2062
2058
2066
2072
2075
2067
2080
2082
2083
2091
2096
2093
2105
2107
2114
2115
2116
2133
2139
2145
2147
2150
2159
2173
2176
2182
2186
2203
2214
2216
2229
2234
2238
2257
2266
2273
2282
2294
2305
2317
2335
2334
2354
2367
2372
2387
2391
2403
2420
2425
2445
2463
2485
2515
2513
2481
2486
2517
2545
2567
2576
2582
2612
2618
2630
2644
2654
2664
2685
2698
2704
2718
2734
2743
2754
2770
2776
2794
2805
2805
2820
2824
2825
2833
2841
2846
2847
2851
2863
2869
2878
2882
2885
2887
2901
2907
2910
2912
2916
2919
2931
2937
2935
2944
2933
2947
2949
2952
2948
2949
2951
2951
2953
2948
2945
2948
2946
2951
2950
2945
2947
2947
2942
2945
2944
2941
2936
2938
2930
2929
2932
2930
2924
2927
2922
2922
2915
2913
2914
2904
2905
2904
2901
2898
2896
2886
2884
2893
2884
2883
2878
2879
2874
2866
2862
2862
2850
2844
2848
2843
2845
2854
2868
2847
2805
2792
2813
2817
2816
2814
2815
2810
2812
2811
2803
2801
2810
2797
2791
2801
2797
2793
2792
2792
2788
2794
2791
2786
2780
2777
2779
2772
2772
2770
2755
2755
2752
2756
2751
2743
2740
2742
2742
2727
2734
2735
2733
2729
2732
2727
2727
2726
2720
2721
2712
2714
2717
2710
2709
2707
2708
2702
2705
2699
2695
2685
2699
2693
2691
2687
2681
2673
2680
2676
2676
2674
2666
2673
2670
2671
2662
2662
2664
2658
2656
2656
2654
2653
2650
2647
2648
2650
2645
2644
2639
2642
2638
2637
2641
2638
2640
2631
2633
2631
2619
2623
2621
2622
2617
2619
2631
2653
2636
2586
2577
2594
2608
2611
2609
2610
2606
2610
2602
2606
2608
2604
2601
2603
2600
2602
2606
2608
2596
2606
2605
2603
2604
2597
2596
2595
2595
2584
2581
2581
2581
2582
2576
2565
2575
2574
2573
2569
2573
2562
2565
2575
2571
2568
2570
2569
2566
2567
2563
2564
2563
2566
2561
2560
2561
2558
2566
2558
2555
2556
2557
2556
2557
2558
2557
2561
2564
2563
2557
2563
2563
2553
2550
2549
2550
2536
2556
2548
2543
2556
2579
2583
2543
2505
2520
2540
2546
2546
2549
2547
2547
2553
2555
2547
2550
2559
2555
2550
2551
2556
2555
2561
2561
2557
2563
2562
2562
2559
2558
2561
2552
2555
2547
2538
2544
2548
2545
2536
2540
2546
2545
2545
2547
2546
2547
2548
2544
2549
2547
2549
2546
2546
2550
2548
2552
2547
2549
2546
2547
2551
2551
2548
2547
2549
2553
2544
2552
2555
2549
2552
2550
2551
2551
2556
2559
2557
2561
2561
2552
2557
2553
2552
2551
2549
2556
2552
2555
2578
2597
2565
2523
2526
2541
2553
2559
2561
2562
2566
2613
2662
2688
2666
2645
2570
2557
2565
2548
2626
2796
2867
2811
2849
2844
2753
2727
2754
2684
2593
2598
2735
2882
2949
3048
3101
3095
3080
3093
3087
3055
2964
2914
3068
3209
3156
3194
3163
3115
3081
3062
3009
3027
3026
3060
3228
3322
3325
3290
3212
3135
3074
3020
3023
3064
3142
3263
3307
3301
3263
3194
3111
3023
2877
2812
2960
3157
3233
3225
3150
3056
2981
2923
2773
2689
2757
2983
3108
3164
3113
3053
3006
2958
2918
2914
2925
2964
3016
3044
3016
2964
2944
2916
2893
2758
2626
2587
2565
2573
2571
2564
2565
2566
2573
2567
2564
2565
2569
2555
2569
2566
2569
2566
2563
2561
2559
2557
2555
2548
2551
2546
2539
2547
2546
2535
2543
2544
2541
2542
2543
2549
2540
2542
2548
2547
2542
2558
2549
2548
2550
2551
2553
2550
2552
2544
2559
2560
2551
2550
2558
2557
2555
2557
2556
2557
2552
2551
2559
2559
2557
2555
2563
2551
2548
2557
2558
2549
2558
2550
2559
2563
2556
2557
2565
2564
2552
2559
2564
2555
2552
2553
2556
2558
2559
2563
2582
2597
2571
2535
2535
2558
2577
2577
2579
2570
2582
2586
2586
2588
2587
2596
2598
2604
2602
2613
2617
2621
2621
2627
2632
2638
2641
2646
2647
2650
2657
2658
2659
2662
2672
2672
2679
2686
2698
2701
2708
2716
2720
2724
2740
2743
2754
2769
2782
2786
2796
2805
2811
2823
2832
2846
2858
2869
2876
2889
2902
2914
2931
2944
2964
2975
2980
2994
3005
3015
3031
3042
3053
3061
3084
3098
3114
3147
3169
3145
3127
3145
3182
3204
3216
3232
3249
3256
3265
3288
3295
3315
3316
3334
3348
3361
3366
3380
3396
3407
3419
3432
3436
3447
3457
3460
3467
3472
3471
3479
3483
3488
3495
3500
3505
3520
3520
3525
3534
3538
3540
3551
3552
3552
3564
3570
3571
3574
3583
3584
3584
3590
3591
3594
3594
3604
3602
3601
3603
3607
3605
3603
3607
3609
3610
3609
3608
3608
3609
3608
3608
3603
3607
3604
3607
3605
3603
3606
3605
3602
3607
3604
3598
3601
3593
3588
3589
3588
3585
3583
3575
3579
3591
3608
3605
3563
3532
3543
3561
3567
3566
3566
3564
3559
3565
3563
3555
3550
3559
3555
3553
3550
3549
3555
3547
3540
3551
3548
3538
3537
3539
3535
3530
3526
3520
3514
3516
3511
3507
3507
3499
3505
3501
3485
3495
3488
3492
3500
3484
3483
3492
3484
3482
3483
3483
3470
3480
3480
3468
3467
3478
3472
3479
3471
3479
3479
3468
3470
3457
3465
3460
3467
3468
3463
3458
3471
3493
3483
3421
3412
3436
3452
3452
3450
3452
3457
3443
3437
3450
3450
3453
3448
3446
3446
3449
3442
3452
3442
3432
3437
3443
3436
3441
3418
3431
3421
3417
3411
3407
3404
3396
3393
3404
3395
3393
3391
3383
3384
3391
3387
3382
3386
3389
3382
3381
3384
3368
3382
3388
3381
3379
3384
3376
3393
3389
3379
3394
3399
3384
3393
3379
3387
3388
3382
3381
3366
3378
3375
3373
3387
3399
3389
3345
3333
3345
3361
3362
3361
3353
3365
3349
3360
3360
3360
3354
3353
3356
3354
3352
3351
3355
3354
3351
3354
3352
3348
3349
3338
3335
3339
3337
3335
3333
3328
3323
3327
3327
3331
3333
3331
3336
3334
3335
3345
3346
3346
3347
3349
3353
3358
3354
3359
3368
3365
3374
3378
3388
3387
3397
3401
3405
3410
3414
3421
3422
3443
3470
3469
3429
3407
3431
3444
3454
3451
3455
3454
3459
3461
3459
3461
3467
3466
3469
3465
3464
3465
3466
3467
3466
3463
3476
3473
3464
3460
3465
3455
3451
3449
3444
3451
3444
3437
3439
3435
3431
3436
3432
3415
3424
3425
3419
3407
3410
3408
3401
3398
3393
3388
3391
3386
3381
3388
3374
3373
3370
3364
3356
3360
3348
3343
3339
3336
3333
3329
3334
3323
3341
3353
3323
3282
3277
3290
3293
3282
3298
3287
3281
3278
3281
3267
3265
3259
3257
3253
3252
3254
3239
3237
3242
3236
3222
3223
3222
3207
3206
3198
3194
3180
3181
3176
3168
3163
3154
3152
3143
3135
3119
3124
3111
3110
3100
3094
3087
3084
3075
3063
3053
3051
3046
3037
3030
3026
3016
3013
3004
2998
2993
2980
2971
2974
2968
2965
2954
2944
2937
2936
2935
2928
2925
2917
2909
2901
2898
2898
2892
2891
2885
2879
2879
2878
2874
2869
2875
2865
2867
2862
2862
2861
2852
2856
2857
2848
2859
2857
2859
2858
2857
2853
2859
2851
2852
2842
2851
2857
2848
2854
2858
2870
2886
2858
2829
2838
2850
2859
2866
2866
2871
2869
2866
2870
2874
2868
2865
2875
2874
2883
2877
2876
2875
2871
2871
2863
2867
2871
2866
2859
2861
2860
2854
2852
2851
2850
2853
2859
2861
2865
2862
2864
2864
2870
2871
2869
2877
2868
2882
2878
2876
2874
2892
2879
2880
2889
2896
2888
2889
2880
2900
2904
2898
2900
2903
2900
2913
2920
2920
2918
2922
2923
2929
2928
2933
2927
2936
2946
2944
2950
2952
2948
2945
2958
2962
2962
2966
2962
2970
2971
2969
2969
2972
2970
2983
2986
2986
2983
2994
2989
2992
3003
3002
3005
3009
3009
3013
3013
3024
3034
3068
3061
3035
3009
3034
3054
3059
3066
3072
3071
3074
3090
3094
3097
3103
3106
3108
3122
3123
3119
3128
3135
3141
3141
3144
3151
3150
3150
3152
3152
3159
3164
3161
3169
3171
3177
3179
3171
3185
3194
3187
3197
3197
3197
3195
3214
3214
3217
3217
3218
3216
3230
3231
3233
3232
3225
3247
3248
3249
3257
3249
3256
3269
3273
3272
3278
3274
3290
3286
3286
3292
3298
3299
3304
3309
3310
3306
3319
3317
3326
3323
3330
3341
3339
3349
3341
3349
3354
3353
3353
3366
3373
3372
3375
3374
3376
3378
3379
3376
3384
3392
3397
3399
3410
3428
3419
3389
3382
3393
3412
3418
3421
3421
3429
3430
3435
3439
3435
3444
3437
3445
3450
3457
3452
3457
3463
3465
3468
3466
3467
3466
3467
3472
3477
3473
3475
3479
3472
3481
3472
3483
3486
3494
3495
3495
3495
3498
3502
3503
3508
3513
3516
3512
3522
3528
3529
3524
3538
3537
3533
3551
3551
3549
3552
3559
3556
3560
3571
3571
3569
3579
3581
3589
3589
3590
3595
3602
3606
3606
3609
3614
3628
3629
3626
3644
3640
3644
3644
3643
3648
3646
3659
3654
3666
3665
3671
3693
3706
3687
3660
3662
3678
3693
3699
3698
3706
3708
3706
3705
3714
3725
3724
3716
3725
3732
3734
3740
3740
3744
3747
3752
3753
3751
3761
3757
3754
3750
3759
3759
3754
3760
3767
3766
3766
3771
3770
3770
3780
3784
3775
3786
3795
3791
3795
3799
3800
3802
3801
3800
3799
3810
3817
3816
3820
3820
3824
3822
3825
3828
3830
3831
3832
3841
3840
3843
3841
3846
3846
3861
3856
3864
3866
3871
3875
3870
3863
3875
3872
3875
3873
3882
3884
3886
3895
3914
3923
3891
3856
3874
3900
3907
3909
3911
3912
3916
3918
3919
3918
3922
3936
3940
3940
3941
3946
3952
3955
3955
3959
3962
3966
3962
3965
3975
3972
3971
3969
3973
3978
3980
3975
3980
3987
3982
3984
3997
3997
4000
4000
4000
4000
4000
4000
4000
4000
4000
4000
4000
4000
4000
4000
4000
4000
4000
4000
4000
4000
4000
4000
4000
4000
4000
4000
4000
4000
4000
4000
4000
4000
4000
4000
4000
4000
4000
4000
4000
4000
4000
4000
4000
4000
4000
4000
4000
4000
4000
4000
4000
4000
4000
4000
4000
4000
4000
4000
4000
4000
4000
4000
4000
4000
4000
4000
4000
4000
4000
4000
4000
4000
4000
4000
4000
4000
4000
4000
4000
4000
4000
4000
4000
4000
4000
4000
4000
4000
4000
4000
4000
4000
4000
4000
4000
4000
4000
4000
4000
4000
4000
4000
4000
4000
4000
4000
4000
4000
4000
4000
4000
4000
4000
4000
4000
4000
4000
4000
4000
4000
4000
4000
4000
4000
4000
4000
4000
4000
4000
4000
4000
4000
4000
4000
4000
4000
4000
4000
4000
4000
4000
4000
4000
4000
4000
4000
4000
4000
4000
4000
4000
4000
4000
4000
4000
4000
4000
4000
4000
4000
4000
4000
4000
4000
4000
4000
4000
4000
4000
4000
4000
4000
4000
4000
4000
4000
4000
4000
4000
4000
4000
4000
4000
4000
4000
4000
4000
4000
4000
4000
4000
4000
4000
4000
4000
4000
4000
4000
4000
4000
4000
4000
4000
4000
4000
4000
4000
4000
4000
4000
4000
4000
4000
4000
4000
4000
4000
4000
4000
4000
4000
4000
4000
4000
4000
4000
4000
4000
4000
4000
4000
4000
4000
4000
4000
4000
4000
4000
4000
4000
4000
4000
4000
4000
4000
4000
4000
4000
4000
4000
4000
4000
4000
4000
4000
4000
4000
4000
4000
4000
4000
4000
4000
4000
4000
4000
4000
4000
4000
4000
4000
4000
4000
4000
4000
4000
4000
4000
4000
4000
4000
4000
4000
4000
4000
4000
4000
4000
4000
4000
4000
4000
4000
4000
4000
4000
4000
4000
4000
4000
4000
4000
4000
4000
4000
4000
4000
4000
4000
4000
4000
4000
4000
4000
4000
4000
4000
4000
4000
4000
4000
4000
4000
4000
4000
4000
4000
4000
4000
4000
4000
4000
4000
4000
4000
4000
4000
4000
4000
4000
4000
4000
4000
4000
4000
4000
4000
4000
4000
4000
4000
4000
4000
4000
4000
4000
4000
4000
4000
4000
4000
4000
4000
4000
4000
4000
4000
4000
4000
4000
4000
4000
4000
4000
4000
4000
4000
4000
4000
4000
4000
4000
4000
4000
4000
4000
4000
4000
4000
4000
4000
4000
4000
4000
4000
4000
4000
4000
4000
4000
4000
4000
4000
4000
4000
4000
4000
4000
4000
4000
4000
4000
4000
4000
4000
4000
4000
4000
4000
4000
4000
4000
4000
4000
4000
4000
4000
4000
4000
4000
4000
4000
4000
4000
4000
4000
4000
4000
4000
4000
4000
4000
4000
4000
4000
4000
4000
4000
4000
4000
4000
4000
4000
4000
4000
4000
4000
4000
4000
4000
4000
4000
4000
4000
4000
4000
4000
4000
4000
4000
4000
4000
4000
4000
4000
4000
4000
4000
4000
4000
4000
4000
4000
4000
4000
4000
4000
4000
4000
4000
4000
4000
4000
4000
4000
4000
4000
4000
4000
4000
4000
4000
4000
4000
4000
4000
4000
4000
4000
4000
4000
4000
4000
4000
4000
4000
4000
4000
4000
4000
4000
4000
4000
4000
4000
4000
4000
4000
4000
4000
4000
4000
4000
4000
4000
4000
4000
4000
4000
4000
4000
4000
4000
4000
4000
4000
4000
4000
4000
4000
4000
4000
4000
4000
4000
4000
4000
4000
4000
4000
4000
4000
4000
4000
4000
4000
4000
4000
4000
4000
4000
4000
4000
4000
4000
4000
4000
4000
4000
4000
4000
4000
4000
4000
4000
4000
4000
4000
4000
4000
4000
4000
4000
4000
4000
4000
4000
4000

